0,1,2,3,4,5,6,7,8,9,10,11,12,13,14,15,16,17,18,19,20,21,22,23,24,25,26,27,28,29,30,31
-0.862902,-0.811581,-0.851943,-0.810579,-0.796765,0.048633,-0.260150,-0.755562,-0.875054,-0.859746,-0.369580,-0.328832,-0.721224,-0.699574,-0.503770,-0.730117,-0.928506,-0.866621,-0.829575,-0.847416,-0.808639,-0.743341,-0.787661,-0.708172,-0.746936,-0.826758,-0.170231,-0.957500,-0.855183,-0.706605,-0.604286,-0.680826
-0.877025,-0.829745,-0.881836,-0.846668,-0.804734,0.055633,-0.257466,-0.799452,-0.831421,-0.863392,-0.370264,-0.329704,-0.712326,-0.703752,-0.500716,-0.720225,-0.963365,-0.894326,-0.844609,-0.853532,-0.859809,-0.753535,-0.793788,-0.682895,-0.668148,-0.832289,-0.170193,-0.968612,-0.858132,-0.709260,-0.609132,-0.722708
-0.834572,-0.776501,-0.870388,-0.799832,-0.753546,0.068990,-0.280675,-0.768678,-0.802749,-0.858068,-0.370591,-0.327146,-0.706659,-0.679714,-0.499756,-0.718673,-0.952498,-0.889624,-0.794934,-0.800914,-0.877198,-0.726063,-0.776987,-0.669674,-0.749927,-0.839047,-0.170777,-0.981608,-0.860687,-0.713524,-0.609174,-0.713730
-0.853931,-0.768690,-0.724681,-0.773843,-0.776496,0.069773,-0.283590,-0.784647,-0.907844,-0.850000,-0.366639,-0.319754,-0.703621,-0.700308,-0.472910,-0.721863,-0.813455,-0.689448,-0.634888,-0.721887,-0.650205,-0.610618,-0.677547,-0.495612,-0.776832,-0.822060,-0.162305,-0.908854,-0.847665,-0.707508,-0.611170,-0.726124
-0.859309,-0.824943,-0.896015,-0.823183,-0.787041,0.049835,-0.258481,-0.845123,-0.893589,-0.879411,-0.370647,-0.330108,-0.699340,-0.698546,-0.494569,-0.727680,-0.961060,-0.912575,-0.843451,-0.830523,-0.892620,-0.786745,-0.828876,-0.749695,-0.765156,-0.824284,-0.172587,-0.989435,-0.860152,-0.713354,-0.601038,-0.717616
-0.906882,-0.885997,-0.932158,-0.895176,-0.846927,0.058433,-0.276071,-0.871160,-0.908759,-0.914482,-0.374177,-0.333837,-0.709032,-0.688723,-0.505046,-0.747164,-1.007841,-0.955648,-0.926756,-0.896807,-0.919389,-0.761077,-0.863716,-0.787977,-0.751111,-0.882412,-0.174491,-1.007497,-0.868602,-0.708865,-0.612215,-0.731565
-0.914337,-0.886297,-0.921044,-0.885434,-0.848816,0.057832,-0.281491,-0.791343,-0.944334,-0.926135,-0.375902,-0.332835,-0.716832,-0.707818,-0.501549,-0.747116,-1.008517,-0.957838,-0.935508,-0.912707,-0.938360,-0.790776,-0.853024,-0.812269,-0.760913,-0.830470,-0.173625,-0.987491,-0.871839,-0.711770,-0.616230,-0.729956
-0.916223,-0.878940,-0.921466,-0.872118,-0.843486,0.061164,-0.292024,-0.796574,-0.932886,-0.931304,-0.369560,-0.327950,-0.709944,-0.691414,-0.504005,-0.740853,-1.008008,-0.941835,-0.936941,-0.918804,-0.915692,-0.791657,-0.848096,-0.798481,-0.717689,-0.793148,-0.173980,-0.970760,-0.859996,-0.709611,-0.614662,-0.727191
-0.914432,-0.882172,-0.904711,-0.872590,-0.813722,0.058611,-0.297885,-0.794672,-0.919550,-0.910121,-0.374441,-0.327394,-0.705155,-0.681684,-0.495145,-0.744319,-1.006178,-0.946203,-0.938976,-0.921607,-0.920407,-0.699837,-0.835289,-0.796516,-0.744298,-0.833496,-0.172844,-0.978140,-0.858377,-0.711837,-0.607959,-0.722524
-0.892526,-0.856062,-0.900523,-0.859760,-0.804803,0.053993,0.119618,-0.717969,-0.939609,-0.914772,-0.373969,-0.330495,-0.709573,-0.670407,-0.505353,-0.734201,-0.985869,-0.917924,-0.916373,-0.887547,-0.881745,-0.790789,-0.836444,-0.776650,-0.720687,-0.815136,-0.173994,-0.988113,-0.867139,-0.693323,-0.608062,-0.712615
-0.870414,-0.859219,-0.911591,-0.851390,-0.800142,0.066048,0.408406,-0.840745,-0.940812,-0.906778,-0.372655,-0.326888,-0.699540,-0.675482,-0.493011,-0.743899,-0.942038,-0.895553,-0.850834,-0.853810,-0.855989,-0.789634,-0.822034,-0.742783,-0.730762,-0.789498,-0.174279,-0.968034,-0.857996,-0.693696,-0.601356,-0.732133
-0.825677,-0.822835,-0.816787,-0.800549,-0.785511,0.056613,0.104349,-0.814688,-0.932634,-0.867924,-0.365700,-0.315216,-0.676231,-0.666338,-0.471919,-0.738066,-0.877608,-0.824704,-0.732447,-0.785650,-0.815004,-0.770268,-0.780578,-0.742245,-0.646526,-0.771057,-0.169329,-0.899990,-0.825518,-0.693513,-0.593922,-0.697486
-0.874892,-0.827782,-0.900423,-0.843297,-0.767784,0.058627,0.113257,-0.839611,-0.952368,-0.907479,-0.376721,-0.324982,-0.702883,-0.674778,-0.490070,-0.738811,-0.912210,-0.882871,-0.878489,-0.878349,-0.875334,-0.788196,-0.834831,-0.774342,-0.811843,-0.802332,-0.175140,-0.978494,-0.850239,-0.693696,-0.583419,-0.699473
-0.862252,-0.826717,-0.889868,-0.834316,-0.796809,0.056511,0.119394,-0.834493,-0.955220,-0.912644,-0.378084,-0.327237,-0.711932,-0.674315,-0.495503,-0.738055,-0.948677,-0.886868,-0.861764,-0.864899,-0.847504,-0.778929,-0.831351,-0.754104,-0.841356,-0.803948,-0.175450,-0.986751,-0.866922,-0.691446,-0.596548,-0.717335
-0.839763,-0.809901,-0.878270,-0.805264,-0.780784,0.025741,0.127158,-0.830137,-0.922724,-0.886634,-0.373769,-0.317950,-0.708399,-0.664539,-0.493656,-0.732075,-0.900401,-0.870963,-0.836840,-0.850060,-0.881760,-0.782329,-0.815156,-0.752316,-0.864000,-0.780132,-0.169087,-0.959935,-0.865692,-0.692568,-0.597274,-0.709054
-0.873709,-0.842828,-0.902667,-0.864942,-0.820470,-0.004812,0.148412,-0.838444,-0.967277,-0.866756,-0.372760,-0.326877,-0.706419,-0.673756,-0.491221,-0.740636,-0.995923,-0.947339,-0.922421,-0.895359,-0.964166,-0.847468,-0.858707,-0.804369,-0.887232,-0.789783,-0.173444,-0.982941,-0.866981,-0.694369,-0.592533,-0.709342
-0.899942,-0.842704,-0.915545,-0.870020,-0.825702,0.012472,0.151185,-0.833000,-0.973042,-0.884077,-0.363997,-0.327446,-0.711589,-0.666905,-0.503475,-0.744848,-1.013677,-0.938782,-0.932414,-0.908463,-0.963062,-0.858931,-0.848081,-0.806906,-0.868377,-0.794445,-0.173083,-0.991603,-0.881067,-0.700479,-0.610506,-0.719909
-0.874102,-0.829860,-0.860926,-0.831734,-0.782859,-0.342439,0.163071,-0.768170,-0.916915,-0.867707,-0.382260,-0.320379,-0.704878,-0.663716,-0.508389,-0.745688,-0.988280,-0.919799,-0.917872,-0.886886,-0.909990,-0.784297,-0.778797,-0.786100,-0.743550,-0.768596,-0.169101,-0.956040,-0.877592,-0.673193,-0.591916,-0.720104
-0.883216,-0.839843,-0.904989,-0.869135,-0.815219,-0.326023,0.166208,-0.859611,-0.968933,-0.876113,-0.386363,-0.328665,-0.714914,-0.662027,-0.508767,-0.745553,-1.020414,-0.937747,-0.927002,-0.902903,-0.955500,-0.873849,-0.861839,-0.794063,-0.862884,-0.807815,-0.174575,-0.995086,-0.878754,-0.700413,-0.607742,-0.711101
-0.816374,-0.767422,-0.802916,-0.816546,-0.754452,-0.333208,0.175493,-0.867241,-0.940812,-0.859836,-0.375719,-0.325753,-0.691628,-0.649314,-0.466665,-0.729942,-0.915067,-0.832305,-0.859446,-0.799903,-0.900950,-0.726825,-0.819539,-0.755325,-0.886595,-0.755848,-0.172418,-0.970769,-0.830818,-0.696185,-0.594528,-0.712977
-0.944906,-0.875937,-0.952846,-0.910581,-0.826610,-0.345298,0.159162,-0.877995,-0.972467,-0.859134,-0.415005,-0.330278,-0.720987,-0.666235,-0.511225,-0.760002,-1.056826,-0.928951,-0.952154,-0.925566,-0.939564,-0.910701,-0.894835,-0.817826,-0.880572,-0.801164,-0.175655,-1.012079,-0.893567,-0.708162,-0.617114,-0.728411
-0.938434,-0.852214,-0.875553,-0.886261,-0.818764,-0.342582,0.160603,-0.833004,-0.948427,-0.868407,-0.404518,-0.321168,-0.700366,-0.660484,-0.501375,-0.744300,-0.980431,-0.908987,-0.886734,-0.887290,-0.866770,-0.845680,-0.842228,-0.763469,-0.902938,-0.801999,-0.172301,-0.960736,-0.849369,-0.715543,-0.607571,-0.724760
-0.911438,-0.842048,-0.915071,-0.857705,-0.823647,-0.342001,0.159776,-0.878660,-0.947774,-0.904329,-0.423815,-0.321354,-0.720683,-0.659983,-0.490326,-0.747456,-1.007544,-0.911916,-0.916174,-0.898264,-0.932305,-0.804871,-0.846352,-0.807229,-0.968404,-0.846921,-0.173709,-0.998939,-0.873967,-0.715993,-0.621774,-0.733634
-0.943328,-0.824043,-0.898202,-0.899799,-0.815089,-0.346395,0.164952,-0.893287,-0.987105,-0.919721,-0.431167,-0.328499,-0.719011,-0.662353,-0.498814,-0.755413,-1.023887,-0.922882,-0.931296,-0.898830,-0.941141,-0.864806,-0.879793,-0.820424,-0.964177,-0.856721,-0.177784,-1.026388,-0.898790,-0.707370,-0.622869,-0.743680
-0.969956,-0.895581,-0.991280,-0.909652,-0.862853,-0.355372,0.162024,-0.893410,-0.979187,-0.907152,-0.427316,-0.331429,-0.729452,-0.666467,-0.498103,-0.754105,-1.022269,-0.940463,-0.947398,-0.949704,-0.936686,-0.828949,-0.875296,-0.852159,-0.979952,-0.844240,-0.176789,-1.017390,-0.898788,-0.716825,-0.629498,-0.741856
-0.973753,-0.886231,-0.983417,-0.913515,-0.859408,-0.357728,0.163530,-0.872603,-0.967179,-0.896508,-0.429973,-0.331402,-0.734339,-0.676458,-0.493517,-0.755178,-1.039121,-0.945405,-0.945684,-0.941367,-0.941726,-0.802145,-0.877008,-0.798837,-1.065686,-0.845169,-0.174778,-1.001834,-0.896680,-0.716754,-0.632495,-0.747606
-0.990571,-0.911567,-0.987550,-0.926884,-0.863610,-0.351622,0.164503,-0.917456,-0.962138,-0.910158,-0.430469,-0.332116,-0.730593,-0.671889,-0.506346,-0.760783,-1.066156,-0.982460,-0.999201,-0.957599,-1.011773,-0.904668,-0.901050,-0.902784,-0.947809,-0.837303,-0.177504,-1.023641,-0.900789,-0.712339,-0.631791,-0.740466
-1.001317,-0.909249,-0.983084,-0.925348,-0.870408,-0.361319,0.162742,-0.925639,-0.989045,-0.929177,-0.428003,-0.332156,-0.759719,-0.666391,-0.497326,-0.758227,-1.083171,-0.977605,-0.993397,-0.973870,-1.008404,-0.908680,-0.908243,-0.903054,-0.991260,-0.841837,-0.176604,-1.024213,-0.903367,-0.709991,-0.631570,-0.723113
-1.003970,-0.920869,-0.987959,-0.909012,-0.854697,-0.362020,0.160742,-0.906651,-0.986753,-0.918706,-0.433376,-0.332082,-0.766944,-0.669204,-0.495882,-0.760393,-1.081759,-0.974359,-0.995769,-0.964861,-1.007605,-0.902690,-0.908841,-0.900390,-1.001513,-0.835618,-0.177278,-1.017870,-0.907111,-0.711585,-0.635461,-0.719282
-0.991592,-0.908433,-0.984032,-0.927185,-0.867037,-0.356176,0.168986,-0.910882,-0.984741,-0.910644,-0.429774,-0.325521,-0.752401,-0.666533,-0.483464,-0.752378,-1.054245,-0.983636,-0.991909,-0.968326,-0.962602,-0.872545,-0.916585,-0.888885,-1.033896,-0.839404,-0.176644,-1.010092,-0.892260,-0.711847,-0.629345,-0.727427
-0.913141,-0.854030,-0.929399,-0.883837,-0.844726,-0.358905,0.167040,-0.895437,-0.959800,-0.897426,-0.431831,-0.327033,-0.722459,-0.654573,-0.489017,-0.718499,-1.015196,-0.913171,-0.944395,-0.877343,-0.980478,-0.857878,-0.896755,-0.871966,-0.967892,-0.791958,-0.175541,-0.981756,-0.874772,-0.703551,-0.621191,-0.701956
-0.932713,-0.830319,-0.872613,-0.867182,-0.819176,-0.362234,0.171360,-0.887971,-0.965398,-0.923538,-0.427439,-0.320657,-0.745799,-0.660095,-0.500726,-0.740983,-1.024492,-0.925247,-0.940289,-0.922285,-0.993230,-0.886242,-0.438883,-0.882205,-1.026268,-0.837070,-0.175650,-0.996665,-0.882487,-0.701675,-0.625587,-0.720717
-0.861470,-0.807080,-0.842290,-0.792071,-0.781949,-0.114575,0.155481,-0.921075,-0.976818,-0.927269,-0.429285,-0.316326,-0.739805,-0.655544,-0.445117,-0.731609,-0.788251,-0.690948,-0.674045,-0.796333,-0.643674,-0.638154,-0.505916,-0.721972,-0.983108,-0.840453,-0.172704,-0.966158,-0.863874,-0.696078,-0.608773,-0.713011
-0.911246,-0.825008,-0.859963,-0.834889,-0.810371,-0.278625,0.170890,-0.924145,-0.978769,-0.890356,-0.435073,-0.322726,-0.753845,-0.653836,-0.481013,-0.739313,-0.946121,-0.897213,-0.874379,-0.890338,-0.945651,-0.837538,0.159563,-0.829434,-1.011757,-0.788629,-0.172310,-0.983514,-0.880579,-0.695785,-0.624710,-0.716275
-0.923709,-0.813074,-0.887678,-0.863560,-0.818787,-0.078651,0.146972,-0.947743,-0.970397,-0.923623,-0.432192,-0.323519,-0.751777,-0.662419,-0.492495,-0.733668,-0.995674,-0.907257,-0.889103,-0.909647,-0.961001,-0.850733,-0.035967,-0.859146,-0.988340,-0.854190,-0.175859,-1.016087,-0.883725,-0.698169,-0.618368,-0.725617
-0.926401,-0.829488,-0.895287,-0.891041,-0.841725,-0.070199,0.155141,-0.933889,-0.969491,-0.878019,-0.433326,-0.324465,-0.746311,-0.652430,-0.494973,-0.736019,-1.005019,-0.912412,-0.903096,-0.913934,-0.983306,-0.834941,0.031931,-0.881363,-1.039220,-0.847501,-0.175461,-1.009030,-0.883094,-0.702262,-0.641045,-0.728507
-0.913250,-0.825886,-0.882440,-0.886994,-0.855170,-0.063014,0.279626,-0.949840,-0.982439,-0.925874,-0.435113,-0.327856,-0.755238,-0.652282,-0.492441,-0.729513,-0.997518,-0.926242,-0.913681,-0.901273,-0.974395,-0.831021,0.088633,-0.884856,-1.031240,-0.891018,-0.175660,-1.016494,-0.887669,-0.697628,-0.636813,-0.722696
-0.934453,-0.829939,-0.904215,-0.904749,-0.867702,-0.033826,-0.173317,-0.933912,-0.922073,-0.938214,-0.435527,-0.328755,-0.749333,-0.682406,-0.496453,-0.737584,-1.016388,-0.925792,-0.917874,-0.924670,-0.972743,-0.825949,0.114708,-0.873682,-1.007720,-0.864708,-0.176076,-1.013848,-0.885357,-0.698332,-0.639636,-0.727842
-0.945154,-0.839275,-0.906075,-0.905855,-0.896347,-0.018627,-0.403880,-0.940340,-0.985858,-0.931427,-0.438039,-0.332036,-0.761673,-0.663050,-0.498853,-0.737747,-1.036613,-0.958656,-0.972095,-0.956073,-1.003485,-0.878065,0.157334,-0.915200,-0.975769,-0.893604,-0.176903,-1.031739,-0.891083,-0.702581,-0.634437,-0.709523
-0.986825,-0.880438,-0.947522,-0.945831,-0.915092,0.012644,-0.431170,-0.945313,-0.991259,-0.947102,-0.435183,-0.336568,-0.768981,-0.690254,-0.502993,-0.744973,-1.074513,-0.992635,-0.988297,-0.999011,-1.035085,-0.872684,0.164075,-0.909771,-1.005392,-0.867588,-0.178354,-1.052239,-0.898372,-0.696767,-0.653617,-0.732061
-1.002728,-0.890000,-0.953386,-0.955710,-0.924004,0.011339,-0.438450,-0.948601,-0.974627,-0.967760,-0.439975,-0.336272,-0.769447,-0.687825,-0.502827,-0.747980,-1.075609,-0.986242,-1.010318,-1.001992,-1.044201,-0.850625,0.170870,-0.929145,-0.954677,-0.883044,-0.178664,-1.057645,-0.900588,-0.702896,-0.657175,-0.739303
-0.996089,-0.889623,-0.957309,-0.953931,-0.921110,0.006775,-0.433552,-0.944348,-0.986385,-0.962974,-0.435845,-0.334679,-0.763560,-0.678265,-0.492792,-0.749901,-1.079053,-0.998025,-1.016185,-0.996519,-1.047391,-0.863388,0.197668,-0.930991,-0.920458,-0.856176,-0.178802,-1.053586,-0.900879,-0.694843,-0.655060,-0.735197
-1.002310,-0.872920,-0.966422,-0.955769,-0.926265,0.015741,-0.433861,-0.944624,-0.975630,-0.937344,-0.434836,-0.336378,-0.771628,-0.684015,-0.502103,-0.751197,-1.079539,-0.997857,-1.017327,-0.985910,-1.054021,-0.866854,0.204388,-0.916669,-0.899773,-0.839444,-0.173073,-1.045493,-0.901731,-0.697448,-0.669590,-0.738557
-0.995559,-0.888526,-0.962924,-0.960611,-0.925007,0.025806,-0.436664,-0.948629,-1.001746,-0.967459,-0.444126,-0.340133,-0.777407,-0.671887,-0.499377,-0.750229,-1.084844,-1.005555,-1.015905,-0.978356,-1.039504,-0.867112,0.206355,-0.911629,-0.832188,-0.890391,-0.182375,-1.074167,-0.905619,-0.704692,-0.672611,-0.711947
-0.984662,-0.875752,-0.929615,-0.931977,-0.914066,0.040673,-0.430631,-0.936179,-1.009741,-0.981000,-0.440773,-0.337765,-0.776119,-0.680979,-0.495678,-0.752148,-1.044951,-0.956370,-0.974388,-0.961317,-0.958858,-0.808238,0.213050,-0.886161,-0.878919,-0.878749,-0.181285,-1.064247,-0.895665,-0.699244,-0.665503,-0.732686
-0.989931,-0.870508,-0.925456,-0.927856,-0.897357,0.040257,-0.420772,-0.936314,-1.013684,-0.984594,-0.442831,-0.338622,-0.774524,-0.671929,-0.492961,-0.754846,-1.030714,-0.946952,-0.975048,-0.965180,-0.973390,-0.810296,0.227193,-0.895879,-0.988174,-0.883030,-0.181715,-1.062942,-0.899572,-0.694417,-0.669576,-0.728600
-0.992259,-0.881959,-0.953786,-0.933952,-0.922456,0.044584,-0.430417,-0.925508,-1.030566,-1.004826,-0.438038,-0.337478,-0.767867,-0.682590,-0.491850,-0.755790,-1.044627,-0.962219,-0.977978,-0.946703,-1.000349,-0.817342,0.219692,-0.861522,-0.873808,-0.880127,-0.181235,-1.068248,-0.895561,-0.701331,-0.667765,-0.724519
-0.991853,-0.881378,-0.951604,-0.945141,-0.914235,0.044115,-0.427817,-0.931132,-1.045808,-0.982346,-0.440862,-0.338313,-0.774991,-0.685904,-0.495238,-0.756247,-1.030115,-0.967171,-0.979052,-0.956012,-0.994646,-0.809429,0.238289,-0.876591,-0.916391,-0.891174,-0.181696,-1.067207,-0.898454,-0.699558,-0.669314,-0.730120
-0.997501,-0.885685,-0.933920,-0.961714,-0.922742,0.048348,-0.431782,-0.944656,-1.049370,-1.010742,-0.442249,-0.337775,-0.774708,-0.687918,-0.502137,-0.758398,-1.052584,-0.971296,-0.990091,-0.947692,-0.989293,-0.827735,0.232850,-0.873703,-0.912638,-0.886468,-0.182739,-1.071256,-0.898008,-0.694708,-0.669627,-0.730631
-0.945647,-0.862161,-0.942110,-0.907312,-0.889397,0.052082,-0.409991,-0.953636,-1.045231,-0.996700,-0.441214,-0.331249,-0.777434,-0.685644,-0.505380,-0.752191,-1.045967,-0.965327,-0.979509,-0.924452,-1.052682,-0.763448,0.242230,-0.883060,-0.965770,-0.897762,-0.180471,-1.044812,-0.892002,-0.694302,-0.665534,-0.730079
-1.038445,-0.906079,-1.006945,-1.007981,-0.955894,0.047310,-0.432459,-0.972708,-1.064752,-1.023905,-0.447805,-0.344654,-0.787594,-0.691845,-0.521840,-0.759938,-1.101551,-1.028396,-1.053805,-1.013695,-1.099255,-0.874604,0.218851,-0.934369,-0.976343,-0.903382,-0.185628,-1.106579,-0.917262,-0.701515,-0.672443,-0.733983
-1.038667,-0.917206,-0.997810,-1.013681,-0.965587,0.046866,-0.454341,-0.975660,-1.093243,-0.992939,-0.448198,-0.346866,-0.778103,-0.688672,-0.516444,-0.764627,-1.092470,-1.027290,-1.046957,-1.044069,-1.091108,-0.880059,0.233312,-0.898560,-0.978076,-0.898191,-0.185339,-1.088752,-0.915339,-0.703856,-0.665327,-0.724950
-1.040077,-0.914152,-1.005495,-1.012699,-0.966530,0.040144,-0.456876,-0.968908,-1.099801,-1.025976,-0.453061,-0.348697,-0.776457,-0.684084,-0.521120,-0.764963,-1.107589,-1.015538,-1.052182,-1.029437,-1.086093,-0.851033,0.208779,-0.944120,-0.967393,-0.916268,-0.188012,-1.115838,-0.920169,-0.702418,-0.669722,-0.736223
-1.038935,-0.908213,-1.027106,-1.011054,-0.973407,0.044721,-0.451540,-0.963830,-1.045606,-1.018867,-0.448657,-0.345721,-0.774122,-0.684530,-0.511844,-0.762479,-1.107516,-1.027117,-1.048244,-1.041140,-1.074179,-0.887484,0.213221,-0.895831,-0.971589,-0.936864,-0.187831,-1.113673,-0.915879,-0.701223,-0.662572,-0.724909
-1.042461,-0.909040,-1.033192,-1.002903,-0.970146,0.041389,-0.471722,-0.982854,-1.099629,-0.982206,-0.452320,-0.348896,-0.782543,-0.693837,-0.518300,-0.762426,-1.109521,-1.015649,-1.053279,-1.043955,-1.074513,-0.837575,0.197377,-0.951222,-0.895306,-0.927091,-0.187482,-1.115951,-0.919462,-0.702845,-0.669011,-0.736230
-1.019959,-0.908773,-0.980656,-0.959359,-0.947719,0.047726,-0.469229,-0.988371,-1.092793,-0.996513,-0.445821,-0.337535,-0.777620,-0.691325,-0.510462,-0.761805,-1.051052,-0.952130,-0.974744,-0.992266,-1.004876,-0.828660,0.222021,-0.910322,-1.043877,-0.924504,-0.186956,-1.103216,-0.913191,-0.705088,-0.664514,-0.740147
-1.009266,-0.911563,-1.014997,-0.989896,-0.974779,0.049500,-0.469118,-0.979283,-1.091957,-1.018464,-0.446337,-0.339114,-0.777355,-0.689069,-0.501997,-0.761067,-1.052075,-0.966599,-0.970110,-0.989980,-1.000647,-0.828273,0.230475,-0.913562,-1.016895,-0.878216,-0.186260,-1.093011,-0.897036,-0.703899,-0.649048,-0.737518
-0.993877,-0.832151,-1.018044,-0.939323,-0.951687,0.018381,-0.461929,-0.986629,-1.095041,-0.978474,-0.444645,-0.338763,-0.777119,-0.692459,-0.510540,-0.744720,-1.056517,-0.961195,-0.975566,-0.977758,-0.986224,-0.786660,0.151811,-0.913162,-0.997348,-0.963106,-0.184528,-1.091370,-0.909212,-0.695249,-0.665602,-0.732982
-0.701807,-0.791143,-0.793729,-0.793209,-0.858686,-0.021144,-0.439314,-0.936039,-0.955117,-0.891458,-0.419212,-0.315702,-0.683962,-0.631454,-0.490187,-0.683583,-0.800816,-0.786610,-0.784925,-0.819980,-0.801605,-0.716771,0.466436,-0.852384,-0.880086,-0.823420,-0.174364,-0.980481,-0.822938,-0.635452,-0.616878,-0.688294
-1.099748,-0.976543,-1.070266,-1.046612,-1.017954,0.044405,-0.477094,-0.965866,-1.119982,-1.042300,-0.442841,-0.343984,-0.789670,-0.705243,-0.513637,-0.773115,-1.141237,-1.013951,-1.048363,-1.072907,-1.040946,-0.842525,-0.399794,-0.920447,-1.089661,-0.982242,-0.190212,-1.124837,-0.938752,-0.707877,-0.675174,-0.738807
-1.111923,-0.999688,-1.132060,-1.072397,-1.027968,-0.222119,-0.482106,-1.029138,-1.099786,-1.051681,-0.449894,-0.351034,-0.798094,-0.683547,-0.523458,-0.775868,-1.125917,-0.997850,-1.039102,-1.089128,-1.033941,-0.878139,-0.557291,-0.946261,-1.057537,-0.992033,-0.189045,-1.137231,-0.951317,-0.711290,-0.677215,-0.753861
-1.139026,-1.023231,-1.125559,-1.099889,-1.055144,-0.366456,-0.485803,-1.019988,-1.115320,-1.054993,-0.452967,-0.357677,-0.805862,-0.703792,-0.524605,-0.800892,-1.187916,-1.080965,-1.120642,-1.116199,-1.090388,-0.932689,-0.830370,-0.895048,-1.069114,-0.919387,-0.192219,-1.157766,-0.952792,-0.702620,-0.671266,-0.751671
-1.138929,-1.026524,-1.133055,-1.087779,-1.053310,-0.353008,-0.474013,-1.060039,-1.083838,-1.052332,-0.446961,-0.346120,-0.793617,-0.699414,-0.518935,-0.798328,-1.197049,-1.050737,-1.112771,-1.111218,-1.096851,-0.914600,-0.925286,-0.935911,-1.025303,-0.988061,-0.183603,-1.150419,-0.951514,-0.717191,-0.673704,-0.752874
-1.145674,-0.982724,-1.132949,-1.094024,-1.057684,-0.362982,-0.487024,-1.072621,-1.110834,-1.050804,-0.455198,-0.348375,-0.753904,-0.688137,-0.523548,-0.791197,-1.182791,-1.079286,-1.117927,-1.111685,-1.102553,-0.913126,-0.952062,-0.924719,-0.997221,-1.029833,-0.186933,-1.136120,-0.950510,-0.713236,-0.666518,-0.689797
-1.131943,-1.020158,-1.115985,-1.092065,-1.036335,-0.377079,-0.478054,-1.088021,-1.100498,-1.048049,-0.454792,-0.343017,-0.668708,-0.634327,-0.513831,-0.773380,-1.194691,-1.080099,-1.122555,-1.122298,-1.095669,-0.927407,-0.957763,-0.918155,-1.095386,-1.012454,-0.185517,-1.139899,-0.937024,-0.692708,-0.656622,-0.711968
-1.088919,-1.002706,-1.084123,-1.040730,-1.007024,-0.364048,-0.479794,-1.058808,-1.075959,-1.032574,-0.448844,-0.338866,-0.708933,-0.661812,-0.506965,-0.767562,-1.144338,-1.045806,-1.082026,-1.076807,-1.038661,-0.870214,-0.931157,-0.891459,-1.143736,-0.941370,-0.179004,-1.100276,-0.912451,-0.700249,-0.640738,-0.685311
-1.075657,-0.928302,-1.008331,-0.941030,-0.792776,-0.360878,-0.414423,-0.896560,-0.965409,-0.921285,-0.428563,-0.318181,-0.599326,-0.587774,-0.473103,-0.690276,-1.107197,-0.938017,-0.947690,-0.838853,-0.806322,-0.681049,-0.791983,-0.676053,-1.019075,-0.808137,-0.171696,-1.054864,-0.660890,-0.594908,-0.597735,-0.645207
-0.925843,-0.877662,-0.932263,-0.932629,-0.880872,-0.379762,-0.433083,-0.959690,-0.993183,-0.953908,-0.430310,-0.315995,-0.532429,-0.526791,-0.442880,-0.653335,-1.036273,-0.913614,-0.907818,-0.902771,-0.863005,-0.734797,-0.838456,-0.774746,-1.140298,-0.876130,-0.174490,-1.021910,-0.618255,-0.461244,-0.534968,-0.594006
-0.744002,-0.699025,-0.804013,-0.777826,-0.686208,-0.367523,-0.388730,-0.853163,-0.760529,-0.735788,-0.381834,-0.255781,-0.383063,-0.366961,-0.276202,-0.377881,-0.886780,-0.753758,-0.778859,-0.772484,-0.717564,-0.642458,-0.678918,-0.675146,-1.056030,-0.804006,-0.167673,-0.890317,-0.603286,-0.428166,-0.525411,-0.549517
-0.838680,-0.791825,-0.847701,-0.796314,-0.736827,-0.362870,-0.388904,-0.837978,-0.861645,-0.811291,-0.409725,-0.290386,-0.498829,-0.473318,-0.364293,-0.499708,-0.927091,-0.827944,-0.830666,-0.798854,-0.761304,-0.689532,-0.751146,-0.692338,-1.104953,-0.800989,-0.167883,-0.943332,-0.685291,-0.492348,-0.447697,-0.483087
-0.793888,-0.759986,-0.821602,-0.762427,-0.695645,-0.339853,-0.370688,-0.791883,-0.835159,-0.784430,-0.403880,-0.290701,-0.509646,-0.481671,-0.351923,-0.440484,-0.933248,-0.777433,-0.806393,-0.744130,-0.729502,-0.681741,-0.723524,-0.635274,-0.967659,-0.792475,-0.165861,-0.938085,-0.691579,-0.509661,-0.509457,-0.516404
-0.738287,-0.747690,-0.788212,-0.754575,-0.695721,-0.357008,-0.374844,-0.813147,-0.830120,-0.780858,-0.399518,-0.271110,-0.435572,-0.391312,-0.218929,-0.233198,-0.879732,-0.783961,-0.796045,-0.757353,-0.718219,-0.653927,-0.730491,-0.671556,-1.070773,-0.764722,-0.165402,-0.904955,-0.651373,-0.468931,-0.417040,-0.370200
-0.773679,-0.763955,-0.780073,-0.743125,-0.669273,-0.344450,-0.369486,-0.767054,-0.780898,-0.750160,-0.399241,-0.273143,-0.461905,-0.432545,-0.290823,-0.334594,-0.892232,-0.778517,-0.806494,-0.758455,-0.740770,-0.690394,-0.733289,-0.689096,-1.026002,-0.758025,-0.163385,-0.894140,-0.649882,-0.443112,-0.373744,-0.310100
-0.786443,-0.762326,-0.781752,-0.732055,-0.678635,-0.345248,-0.378921,-0.785111,-0.806222,-0.755218,-0.373635,-0.272320,-0.462838,-0.437961,-0.320121,-0.397648,-0.910899,-0.798897,-0.817095,-0.770906,-0.721455,-0.685319,-0.747374,-0.699134,-1.054590,-0.772491,-0.163806,-0.899264,-0.654250,-0.469098,-0.422908,-0.429036
-0.772451,-0.739600,-0.786913,-0.744006,-0.669100,-0.356632,-0.374835,-0.793559,-0.793606,-0.746439,-0.339761,-0.272228,-0.457633,-0.435430,-0.327960,-0.403399,-0.907915,-0.791626,-0.811060,-0.760256,-0.748244,-0.681292,-0.750516,-0.672376,-1.038586,-0.767021,-0.164913,-0.899923,-0.651787,-0.470343,-0.440202,-0.447277
-0.755525,-0.744694,-0.759235,-0.741475,-0.666399,-0.349534,-0.373118,-0.795410,-0.778515,-0.723408,-0.361977,-0.262698,-0.444454,-0.427036,-0.324306,-0.387061,-0.904294,-0.797754,-0.808734,-0.760110,-0.761686,-0.676019,-0.750317,-0.689316,-1.053662,-0.772444,-0.163232,-0.891376,-0.645468,-0.469595,-0.435605,-0.439925
-0.771722,-0.744939,-0.783414,-0.739897,-0.672961,-0.346731,-0.372767,-0.783384,-0.786924,-0.739527,-0.356865,-0.266389,-0.449829,-0.427092,-0.306758,-0.379893,-0.894493,-0.791796,-0.812857,-0.761610,-0.753706,-0.679101,-0.735207,-0.682035,-1.047916,-0.772764,-0.163534,-0.890751,-0.639070,-0.465676,-0.427967,-0.425844
-0.773223,-0.744244,-0.762238,-0.743876,-0.646210,-0.342679,-0.366721,-0.753551,-0.742455,-0.732461,-0.355627,-0.267866,-0.443914,-0.425283,-0.309531,-0.371645,-0.904471,-0.795034,-0.811431,-0.752083,-0.755468,-0.667598,-0.742793,-0.645613,-1.048376,-0.765747,-0.163965,-0.892421,-0.641131,-0.465275,-0.421006,-0.408458
-0.748598,-0.718898,-0.764497,-0.724825,-0.631339,-0.348895,-0.369311,-0.765238,-0.785808,-0.730848,-0.356523,-0.265249,-0.442608,-0.421051,-0.293640,-0.368611,-0.859591,-0.721241,-0.738629,-0.729289,-0.689313,-0.578562,-0.673912,-0.643049,-1.003755,-0.769009,-0.163542,-0.887401,-0.641187,-0.464206,-0.419224,-0.415564
-0.750754,-0.723299,-0.758427,-0.726298,-0.645690,-0.345859,-0.370830,-0.764861,-0.757364,-0.741464,-0.349190,-0.263958,-0.442037,-0.415749,-0.285697,-0.356679,-0.846708,-0.727681,-0.747539,-0.737712,-0.706972,-0.629901,-0.694019,-0.643482,-1.018149,-0.754628,-0.162618,-0.870205,-0.633766,-0.459866,-0.414875,-0.387226
-0.749454,-0.714756,-0.731588,-0.724181,-0.633489,-0.347551,-0.370881,-0.759362,-0.760753,-0.746382,-0.348088,-0.265354,-0.425617,-0.395166,-0.283204,-0.326120,-0.868198,-0.758225,-0.767280,-0.737663,-0.713168,-0.639831,-0.702585,-0.651172,-1.009676,-0.760805,-0.162123,-0.875047,-0.599461,-0.426373,-0.395628,-0.335790
-0.750701,-0.728827,-0.751625,-0.717229,-0.645668,-0.348430,-0.373472,-0.747897,-0.787928,-0.734706,-0.348312,-0.263284,-0.405250,-0.395148,-0.289900,-0.347875,-0.867726,-0.746389,-0.771703,-0.737894,-0.732074,-0.642491,-0.697024,-0.633397,-0.987091,-0.769739,-0.161467,-0.858897,-0.609148,-0.434356,-0.386857,-0.380103
-0.744485,-0.720111,-0.735349,-0.703958,-0.629035,-0.346273,-0.370147,-0.764969,-0.756943,-0.736897,-0.342779,-0.258954,-0.407283,-0.397665,-0.284652,-0.334972,-0.849088,-0.734040,-0.754964,-0.732806,-0.718201,-0.640591,-0.696858,-0.633958,-0.985557,-0.759086,-0.161020,-0.843395,-0.608631,-0.436753,-0.392025,-0.372948
-0.725316,-0.705820,-0.737716,-0.701539,-0.621367,-0.344268,-0.367709,-0.696897,-0.757535,-0.659305,-0.348552,-0.252750,-0.369099,-0.365793,-0.261461,-0.275332,-0.863264,-0.748927,-0.759527,-0.746698,-0.732502,-0.663095,-0.670210,-0.653305,-0.987732,-0.751829,-0.158423,-0.827900,-0.589681,-0.393414,-0.173712,-0.306674
-0.723068,-0.714157,-0.740987,-0.719320,-0.627846,-0.349014,-0.357904,-0.765029,-0.769707,-0.643859,-0.344671,-0.253999,-0.364060,-0.340732,-0.227605,-0.212964,-0.845801,-0.750434,-0.773029,-0.745914,-0.750396,-0.674173,-0.696014,-0.643523,-0.935509,-0.759791,-0.160681,-0.828768,-0.586876,-0.398928,-0.258092,-0.277810
-0.682543,-0.711805,-0.696292,-0.696338,-0.623412,-0.336733,-0.361098,-0.753404,-0.757719,-0.663073,-0.340703,-0.249784,-0.359701,-0.334276,-0.187960,-0.129934,-0.832461,-0.724655,-0.743786,-0.695310,-0.752315,-0.620558,-0.673438,-0.644215,-0.949884,-0.744030,-0.155077,-0.792131,-0.569538,-0.392436,-0.260646,-0.218515
-0.708888,-0.710209,-0.720721,-0.710062,-0.625105,-0.347238,-0.366041,-0.763048,-0.756595,-0.671351,-0.343730,-0.250816,-0.355939,-0.338260,-0.202279,-0.165649,-0.833425,-0.745826,-0.766872,-0.724560,-0.746783,-0.658440,-0.681750,-0.611425,-0.980942,-0.750338,-0.156028,-0.811301,-0.576113,-0.404841,-0.287402,-0.268953
-0.706636,-0.695976,-0.722495,-0.706558,-0.629502,-0.345929,-0.361537,-0.732695,-0.755502,-0.663231,-0.341528,-0.250781,-0.354523,-0.341152,-0.200571,-0.162819,-0.845880,-0.751856,-0.760564,-0.714357,-0.738328,-0.652565,-0.684266,-0.640394,-0.948425,-0.747957,-0.156032,-0.790289,-0.567484,-0.395537,-0.279668,-0.253519
-0.681728,-0.701240,-0.697439,-0.696993,-0.601580,-0.343248,-0.368749,-0.746743,-0.741459,-0.663650,-0.335419,-0.249735,-0.351071,-0.339010,-0.182555,-0.147890,-0.816674,-0.732496,-0.736970,-0.713893,-0.733233,-0.636852,-0.674033,-0.655025,-0.907269,-0.726478,-0.155657,-0.788738,-0.554022,-0.368392,-0.251420,-0.188058
-0.681014,-0.667606,-0.685728,-0.676598,-0.601275,-0.337870,-0.360387,-0.713994,-0.724950,-0.662473,-0.336301,-0.241129,-0.320722,-0.325036,-0.153039,-0.138247,-0.801415,-0.698209,-0.699779,-0.685338,-0.656467,-0.616924,-0.652581,-0.637075,-0.909050,-0.715811,-0.153993,-0.758831,-0.495267,-0.298330,-0.234929,-0.167950
-0.448961,-0.464491,-0.372357,-0.355974,-0.327472,-0.245937,-0.260580,-0.443476,-0.496301,-0.393738,-0.293421,-0.199976,-0.314821,-0.318829,-0.174905,-0.106624,-0.389118,-0.394173,-0.404409,-0.286673,-0.431873,-0.331488,-0.486318,-0.438413,-0.555215,-0.447637,-0.118107,-0.396975,-0.299474,-0.320251,-0.220049,-0.144448
-0.585656,-0.561596,-0.470404,-0.507259,-0.457039,-0.294411,-0.275064,-0.505127,-0.586626,-0.546641,-0.323477,-0.213817,-0.124559,-0.101936,-0.005781,-0.009295,-0.635572,-0.536171,-0.535739,-0.419169,-0.457371,-0.456945,-0.495531,-0.461341,-0.668263,-0.576752,-0.138275,-0.589208,-0.415858,-0.217819,-0.200421,0.016855
-0.520568,-0.491353,-0.427682,-0.420875,-0.347817,-0.266627,-0.261865,-0.380590,-0.540347,-0.519601,-0.318541,-0.210361,0.392554,0.859801,0.165468,0.054595,-0.520555,-0.453123,-0.396890,-0.328799,-0.411766,-0.411516,-0.386212,-0.430213,-0.519730,-0.356009,-0.111331,0.020638,0.683309,0.064928,-0.174816,-0.115782
-0.583602,-0.582036,-0.472410,-0.445365,-0.410672,-0.285327,-0.304095,-0.575388,-0.475936,-0.452877,-0.294871,-0.193338,-0.066304,-0.007946,-0.092359,-0.011025,-0.574777,-0.500533,-0.452082,-0.416059,-0.418640,-0.396146,-0.504290,-0.472752,-0.664254,-0.452514,-0.123867,-0.367820,0.131110,0.024331,-0.153963,-0.050989
-0.457883,-0.575591,-0.525658,-0.547144,-0.532924,-0.307238,-0.329705,-0.609056,-0.585352,-0.495354,-0.312928,-0.207646,-0.196541,-0.108710,-0.131681,-0.066488,-0.635555,-0.581594,-0.573067,-0.604120,-0.534029,-0.595559,-0.581517,-0.628091,-0.693484,-0.607830,-0.132557,-0.300687,0.338537,0.047007,-0.132114,-0.061605
-0.666752,-0.673073,-0.643657,-0.593363,-0.596348,-0.322350,-0.358318,-0.679643,-0.663125,-0.637882,-0.329837,-0.240982,-0.255460,-0.148521,-0.163515,-0.060516,-0.696957,-0.647205,-0.600458,-0.611162,-0.582884,-0.663308,-0.631605,-0.658761,-0.775982,-0.618604,-0.137138,-0.400555,0.219011,0.011849,-0.158975,-0.108280
-0.626695,-0.635801,-0.659172,-0.612538,-0.622200,-0.309916,-0.336477,-0.661818,-0.638821,-0.604844,-0.329304,-0.212721,-0.240548,-0.131925,-0.116764,0.022245,-0.631033,-0.594072,-0.615755,-0.577059,-0.632159,-0.636938,-0.615946,-0.626881,-0.719302,-0.577179,-0.134890,-0.310118,0.258365,0.022833,-0.120930,0.043481
-0.622501,-0.605920,-0.659998,-0.634622,-0.632051,-0.301409,-0.346877,-0.663882,-0.661876,-0.627752,-0.332724,-0.220018,-0.228143,-0.136776,-0.127937,-0.003315,-0.646065,-0.615475,-0.640843,-0.625757,-0.653010,-0.596660,-0.612924,-0.639799,-0.717640,-0.582998,-0.135635,-0.317545,0.266053,0.038566,-0.102925,0.043558
-0.547405,-0.615256,-0.631705,-0.601629,-0.601281,-0.291766,-0.331806,-0.578875,-0.652575,-0.599657,-0.334737,-0.206531,-0.200598,-0.107140,-0.106218,0.055004,-0.612493,-0.600006,-0.602976,-0.562198,-0.585760,-0.606608,-0.591241,-0.623116,-0.687108,-0.575036,-0.133172,-0.285576,0.291422,0.048891,-0.112332,0.014467
-0.612624,-0.609487,-0.655723,-0.571945,-0.608051,-0.285814,-0.316290,-0.609817,-0.654512,-0.603126,-0.326640,-0.204215,-0.208917,-0.128481,-0.142615,-0.093837,-0.615786,-0.571806,-0.573065,-0.540050,-0.596685,-0.598131,-0.570791,-0.634542,-0.670335,-0.574518,-0.134242,-0.310896,0.282190,0.065980,-0.092380,0.011803
-0.666478,-0.643439,-0.671461,-0.628415,-0.624258,-0.311880,-0.345512,-0.647596,-0.694767,-0.637513,-0.309514,-0.213650,-0.225184,-0.136284,-0.169289,-0.118162,-0.665921,-0.629492,-0.616835,-0.580678,-0.636726,-0.608944,-0.619512,-0.633732,-0.745262,-0.594551,-0.135636,-0.318872,0.282866,0.038077,-0.171035,-0.067818
-0.653553,-0.633825,-0.618581,-0.612963,-0.609929,-0.307405,-0.339350,-0.672662,-0.657512,-0.622182,-0.366319,-0.210087,-0.209869,-0.131070,-0.169373,-0.127644,-0.656844,-0.616104,-0.549983,-0.553416,-0.553328,-0.546171,-0.604894,-0.536063,-0.695267,-0.596989,-0.134021,-0.316184,0.288413,0.041366,-0.152929,-0.069899
-0.633093,-0.627235,-0.649899,-0.596624,-0.602136,-0.300269,-0.331295,-0.634981,-0.645991,-0.620349,-0.366033,-0.203780,-0.205229,-0.111529,-0.154354,-0.110794,-0.636474,-0.586521,-0.587646,-0.545758,-0.574224,-0.553918,-0.597732,-0.606843,-0.684664,-0.581523,-0.133632,-0.307119,0.291507,0.057225,-0.115214,-0.026257
-0.605708,-0.615269,-0.610723,-0.583362,-0.572924,-0.292282,-0.316268,-0.586907,-0.650114,-0.616167,-0.364187,-0.198852,-0.174263,-0.067140,-0.128902,-0.089230,-0.609659,-0.561459,-0.545894,-0.518081,-0.531682,-0.560100,-0.570191,-0.562649,-0.666793,-0.565246,-0.131741,-0.300799,0.306251,0.080046,-0.100604,-0.020110
-0.573753,-0.581572,-0.543833,-0.530647,-0.519689,-0.288182,-0.307606,-0.550802,-0.613883,-0.591413,-0.356694,-0.147512,0.176545,0.125145,-0.033432,-0.076166,-0.547970,-0.518808,-0.501538,-0.446506,-0.502862,-0.489575,-0.531912,-0.548604,-0.522855,-0.522671,-0.125251,-0.263862,0.365404,0.159142,-0.093380,-0.010005
-0.503394,-0.518974,-0.457755,-0.454425,-0.471093,-0.264622,-0.269566,-0.514814,-0.442053,-0.452305,-0.338914,-0.144320,0.379459,0.549336,0.130433,-0.015769,-0.459416,-0.457658,-0.374475,-0.367178,-0.296713,-0.416729,-0.474914,-0.383274,-0.328537,-0.300060,-0.099972,0.253548,1.016777,0.537822,-0.001196,0.018546
-0.480301,-0.516979,-0.464685,-0.402068,-0.432151,-0.253455,-0.267731,-0.472148,-0.419664,-0.477355,-0.344286,-0.154804,0.339163,0.413865,0.076375,-0.011482,-0.432985,-0.349841,-0.374464,-0.339689,-0.373996,-0.373182,-0.452069,-0.459596,-0.467951,-0.316351,-0.104770,0.037167,0.754022,0.487464,0.008134,0.044452
-0.521674,-0.548194,-0.514619,-0.441750,-0.488226,-0.265605,-0.286869,-0.530921,-0.534786,-0.480109,-0.340891,-0.158190,0.136685,0.191387,0.000219,0.456860,-0.501287,-0.453288,-0.422960,-0.391419,-0.437477,-0.470558,-0.472371,-0.478949,-0.504767,-0.425836,-0.119705,-0.079299,0.755542,0.387821,0.011225,0.362610
-0.434454,-0.474153,-0.477712,-0.406500,-0.440111,-0.260792,-0.282045,-0.491726,-0.456886,-0.444858,-0.323674,-0.130712,0.230209,0.255316,-0.004898,0.280556,-0.408751,-0.409940,-0.369404,-0.340626,-0.385928,-0.449574,-0.476542,-0.485659,-0.491095,-0.408779,-0.116062,-0.049074,0.770077,0.389654,0.002853,0.337938
-0.416947,-0.495081,-0.448224,-0.426882,-0.454305,-0.271863,-0.279293,-0.491845,-0.493282,-0.458305,-0.330909,-0.137063,0.217864,0.259876,0.003856,0.243995,-0.416963,-0.419154,-0.399409,-0.375668,-0.410818,-0.448286,-0.470423,-0.480816,-0.509717,-0.441336,-0.118250,-0.044248,0.770585,0.418076,0.088832,0.311538
-0.341554,-0.419966,-0.375842,-0.334558,-0.360814,-0.247503,-0.246592,-0.431938,-0.404063,-0.405069,-0.316702,-0.118461,0.264517,0.295992,0.035880,0.285772,-0.332405,-0.325430,-0.287942,-0.235532,-0.270334,-0.382085,-0.403993,-0.418705,-0.451857,-0.369246,-0.115196,-0.004901,0.785198,0.410008,0.033728,0.284959
-0.295836,-0.398098,-0.318131,-0.316103,-0.300157,-0.237952,-0.244997,-0.405297,-0.386516,-0.425994,-0.314612,-0.111176,0.266418,0.303544,0.047940,0.299900,-0.298327,-0.249807,-0.255491,-0.174239,-0.188176,-0.305717,-0.385841,-0.374602,-0.392615,-0.361820,-0.110651,0.018192,0.801097,0.439878,0.165617,0.347436
-0.312566,-0.406557,-0.309215,-0.292825,-0.319727,-0.220695,-0.227364,-0.395738,-0.401729,-0.419967,-0.313511,-0.098348,0.285202,0.327774,0.044889,0.272648,-0.310494,-0.273554,-0.269304,-0.223735,-0.219007,-0.343942,-0.384684,-0.337558,-0.181744,-0.341340,-0.112968,0.028284,0.805297,0.434246,0.070710,0.352182
-0.005401,-0.104967,-0.010853,0.008481,-0.054127,-0.158047,-0.097869,0.061126,0.003804,-0.172509,-0.260824,-0.094132,0.396755,0.411823,0.142076,0.507073,0.128927,0.056735,0.080004,0.154386,0.040938,-0.116889,-0.146824,-0.164260,-0.005161,-0.063346,-0.089337,0.360755,0.976145,0.563927,0.297377,0.692075
-0.219089,-0.316603,-0.240334,-0.177068,-0.244484,-0.221991,-0.216305,-0.231221,-0.272946,-0.312625,-0.295562,-0.040944,0.317503,0.352952,0.075665,0.382705,-0.175176,-0.165068,-0.179219,-0.094617,-0.172468,-0.152277,-0.314137,-0.309337,-0.292415,-0.233227,-0.104347,0.126707,0.851746,0.463602,0.114031,0.433002
-0.207074,-0.321880,-0.277729,-0.225078,-0.278624,-0.225332,-0.215426,-0.289166,-0.304579,-0.353042,-0.063231,-0.065450,0.373715,0.369854,0.104648,0.422221,-0.173847,-0.198137,-0.185804,-0.122891,-0.196830,-0.241536,-0.331652,-0.316907,-0.304144,-0.271088,-0.108244,0.113650,0.860046,0.489069,0.155620,0.502073
-0.180498,-0.320133,-0.263943,-0.205165,-0.253403,-0.222605,-0.211649,-0.263774,-0.293250,-0.380587,-0.175962,-0.061327,0.341078,0.366412,0.103873,0.407470,-0.148860,-0.181787,-0.146874,-0.086014,-0.155956,-0.194315,-0.314780,-0.336019,-0.318771,-0.267757,-0.108095,0.125123,0.858660,0.486344,0.161320,0.519228
-0.168152,-0.306865,-0.219872,-0.198647,-0.245085,-0.215153,-0.204168,-0.231792,-0.268614,-0.349182,0.308220,-0.046190,0.397694,0.438176,0.131767,0.420493,-0.148695,-0.200903,-0.177818,-0.103889,-0.190821,-0.242452,-0.313302,-0.322107,-0.243472,-0.239414,-0.105760,0.147753,0.901878,0.580007,0.230889,0.491642
-0.098673,-0.201247,-0.078932,0.020926,-0.102233,-0.175221,-0.132395,-0.041736,-0.141454,-0.253187,0.242760,-0.023520,0.413804,0.474640,0.179387,0.476716,-0.029542,0.020829,0.004391,0.136283,-0.016009,-0.035401,-0.169743,-0.216361,-0.076946,-0.124152,-0.087530,0.351340,1.028530,0.630931,0.254755,0.483205
-0.209191,-0.344892,-0.254289,-0.250336,-0.232563,-0.220989,-0.205083,-0.228417,-0.313500,-0.366840,0.287232,-0.056161,0.500792,0.541594,0.204675,0.424499,-0.211734,-0.253599,-0.158107,-0.112763,-0.207638,-0.304492,-0.312583,-0.211326,-0.192636,-0.172419,-0.101616,0.211673,0.935825,0.572756,0.170041,0.426581
-0.140606,-0.210155,-0.141945,-0.074616,-0.104723,-0.176354,-0.133304,-0.197591,-0.116773,-0.255274,0.358517,-0.058995,0.526196,1.042244,0.316701,0.459564,-0.092036,-0.088302,-0.036792,0.079366,-0.041661,-0.070807,-0.201667,-0.184722,-0.067309,0.014715,-0.077791,0.536697,1.229793,0.538213,0.142272,0.432011
-0.241270,-0.394173,-0.336839,-0.285754,-0.321504,-0.241967,-0.236324,-0.328014,-0.340203,-0.404324,0.363691,-0.070319,0.502117,0.627200,0.199947,0.457677,-0.258652,-0.274770,-0.268167,-0.170879,-0.285141,-0.347253,-0.365492,-0.374207,-0.301441,-0.309730,-0.109320,0.111087,0.844067,0.424813,0.141856,0.420998
-0.213684,-0.380768,-0.312530,-0.275921,-0.315575,-0.241424,-0.235060,-0.311976,-0.310900,-0.406127,0.432085,-0.073812,0.406056,0.476964,0.186397,0.473823,-0.246412,-0.262534,-0.221684,-0.144956,-0.279395,-0.342544,-0.361697,-0.335722,-0.337996,-0.321291,-0.116485,0.003625,0.732287,0.442307,0.150325,0.402762
-0.137416,-0.263439,-0.185745,-0.119993,-0.220403,-0.206723,-0.172539,-0.198888,-0.271705,-0.342924,0.443347,-0.057567,0.443070,0.503923,0.199088,0.497670,-0.011713,0.006640,0.037091,0.124760,0.074746,-0.017132,-0.169160,-0.108860,-0.242062,-0.208408,-0.107074,0.095994,0.753519,0.435692,0.160835,0.440895
-0.110322,-0.219895,-0.153814,-0.119890,-0.154176,-0.194976,-0.177462,-0.097574,-0.141182,-0.278505,0.433218,-0.064410,0.438438,0.509318,0.219079,0.488549,-0.091706,-0.101421,-0.045659,0.037476,-0.081877,-0.175713,-0.214742,-0.187585,-0.060704,-0.147657,-0.102043,0.100328,0.741155,0.433006,0.183738,0.417046
-0.164166,-0.330569,-0.259689,-0.211949,-0.253703,-0.219541,-0.206158,-0.274725,-0.212651,-0.352261,0.460621,-0.061077,0.457280,0.523720,0.219964,0.560300,-0.188056,-0.190246,-0.159974,-0.075793,-0.163277,-0.238577,-0.299909,-0.259990,-0.268925,-0.266540,-0.110132,0.058502,0.736704,0.430998,0.173580,0.484682
-0.136784,-0.314361,-0.238755,-0.207578,-0.238356,-0.219938,-0.202251,-0.274101,-0.229055,-0.326496,0.460883,-0.033068,0.502374,0.570750,0.258985,0.621299,-0.173507,-0.188514,-0.138543,-0.071587,-0.158445,-0.234655,-0.299022,-0.239982,-0.254512,-0.262982,-0.105986,0.168734,0.850915,0.523376,0.201925,0.534493
-0.133426,-0.301455,-0.239048,-0.200884,-0.226484,-0.219996,-0.200665,-0.239519,-0.220520,-0.290776,0.486541,-0.043632,0.527450,0.550895,0.234872,0.576498,-0.158368,-0.171983,-0.127195,-0.063356,-0.182858,-0.208104,-0.281592,-0.280061,-0.198371,-0.261372,-0.108171,0.095730,0.773832,0.478594,0.219839,0.607760
-0.030752,-0.223966,-0.139758,-0.069159,-0.095549,-0.185619,-0.162700,-0.078670,-0.098240,-0.247958,0.490385,-0.019983,0.519393,0.541229,0.247430,0.601593,-0.035416,-0.027911,0.011623,0.091814,-0.009076,-0.110918,-0.175311,-0.129429,-0.017034,-0.165386,-0.102058,0.140190,0.790951,0.507311,0.247511,0.620452
0.001833,-0.222613,-0.121423,-0.045892,-0.077969,-0.192194,-0.144787,-0.122217,-0.072181,-0.185407,0.475174,-0.010493,0.559781,0.566037,0.246079,0.579645,-0.052645,-0.026539,-0.009848,0.072547,-0.032001,-0.123412,-0.143190,-0.198451,-0.078439,-0.101239,-0.094295,0.187397,0.801073,0.509939,0.237323,0.627069
-0.127261,-0.300536,-0.229455,-0.172514,-0.216434,-0.218387,-0.194102,-0.210413,-0.192133,-0.313410,0.485142,-0.043714,0.514264,0.566855,0.242528,0.579210,-0.147524,-0.153111,-0.127249,-0.049349,-0.173492,-0.235019,-0.269566,-0.266643,-0.199546,-0.252754,-0.108222,0.084562,0.791633,0.521870,0.226900,0.616054
-0.077873,-0.272302,-0.160547,-0.138734,-0.195324,-0.177938,-0.172020,-0.158413,-0.144823,-0.248893,0.495594,-0.007545,0.736720,0.703655,0.337494,0.653235,-0.104946,-0.134479,-0.110881,-0.014342,-0.135825,-0.214058,-0.237954,-0.251519,-0.151889,-0.206334,-0.104198,0.168866,0.914495,0.589165,0.300642,0.630820
-0.077277,-0.239671,-0.149262,-0.086818,-0.085420,-0.194545,-0.143698,-0.115910,-0.067678,-0.253941,0.499620,-0.018640,1.114782,1.157241,0.437503,0.623999,-0.018348,-0.052122,0.010780,0.105155,-0.055444,-0.132120,-0.193379,-0.171730,-0.022300,-0.058739,-0.080283,0.348855,1.097756,0.691515,0.257329,0.674478
-0.024756,-0.237891,-0.087660,-0.069952,-0.122389,-0.146460,-0.129955,-0.115460,-0.074735,-0.199063,0.495502,-0.022137,0.530175,0.567759,0.311802,0.661412,-0.053407,-0.041053,-0.005629,0.034206,0.007016,-0.130580,-0.174408,-0.151110,-0.034392,-0.053061,-0.092380,0.334988,0.961542,0.577785,0.288258,0.618472
-0.114397,-0.290596,-0.207692,-0.155409,-0.164533,-0.150787,-0.171430,-0.128986,-0.120115,-0.219357,0.512847,-0.035039,0.422486,0.476892,0.255002,0.695218,-0.125294,-0.109800,-0.076702,-0.004769,-0.127997,-0.207475,-0.235397,-0.224043,-0.204060,-0.153476,-0.099152,0.174586,0.741019,0.423185,0.244718,0.712172
-0.073568,-0.221983,-0.158884,-0.154905,-0.219521,-0.144682,-0.177110,-0.174746,-0.142424,-0.265629,0.494609,-0.036129,0.490596,0.553227,0.345280,0.939127,-0.065752,-0.118968,-0.108850,-0.016126,-0.101582,-0.209571,-0.293597,-0.285825,-0.153119,-0.174295,-0.103692,0.127321,0.752280,0.453478,0.287274,0.557306
-0.122163,-0.269276,-0.214018,-0.200636,-0.253604,-0.122762,-0.198639,-0.221786,-0.205634,-0.322585,0.488575,-0.049884,0.469158,0.518678,0.255871,0.526266,-0.146471,-0.181975,-0.174727,-0.083847,-0.202390,-0.253712,-0.322067,-0.300275,-0.196687,-0.227529,-0.106513,0.123416,0.793922,0.548586,0.402744,0.690124
-0.112236,-0.301827,-0.286441,-0.191927,-0.222942,-0.158213,-0.179323,-0.165494,-0.084537,-0.296864,0.499354,0.003469,0.687033,0.680095,0.367786,0.589709,-0.144594,-0.157387,-0.162063,-0.084385,-0.222536,-0.168649,-0.286894,-0.349648,-0.296510,-0.278336,-0.105389,0.176051,0.817391,0.572139,0.413974,0.712857
0.056740,-0.225305,-0.185947,-0.103507,-0.178799,-0.087754,-0.169817,-0.089217,0.012522,-0.028874,0.497035,0.072400,0.784143,0.767568,0.487342,0.838561,-0.036006,-0.138014,-0.096550,-0.037979,-0.109484,-0.228328,-0.253519,-0.280495,-0.061129,-0.181050,-0.096306,0.221681,0.805099,0.489851,0.355260,0.616907
-0.003890,-0.242244,-0.175293,-0.113661,-0.176973,-0.104584,-0.178998,-0.168573,-0.072083,-0.145406,0.481737,0.026278,0.604974,0.685900,0.416735,0.964269,-0.080940,-0.136111,-0.101366,-0.018873,-0.094786,-0.207548,-0.231845,-0.252529,-0.094304,-0.183115,-0.100607,0.108750,0.724965,0.455649,0.285270,0.610777
0.013815,-0.175250,-0.077027,-0.038504,-0.099112,-0.078976,-0.160097,-0.058324,-0.021581,-0.122279,0.458102,-0.031160,0.556416,0.594813,0.322448,0.658002,-0.013505,-0.062845,-0.060899,0.073765,-0.021024,-0.150385,-0.226941,-0.238158,-0.019679,-0.123390,-0.095847,0.193755,0.801247,0.496942,0.329580,0.671872
0.079623,-0.119853,0.006219,0.038668,-0.031461,-0.094408,-0.120993,0.092144,0.034674,0.032256,0.464489,0.045067,0.682766,0.681003,0.373717,0.661667,0.085026,0.073135,0.064124,0.136771,0.009304,-0.061646,-0.091819,-0.077033,0.091390,0.049430,-0.084365,0.321505,0.942094,0.581114,0.392871,0.661066
-0.033976,-0.231366,-0.117077,-0.048670,-0.124487,-0.068995,-0.158582,-0.178637,0.034843,-0.043452,0.522453,0.035366,1.198048,1.073584,0.447583,0.693762,-0.140371,-0.100736,-0.023863,0.058992,-0.033432,-0.117164,-0.190481,-0.218611,-0.046409,-0.119149,-0.099923,0.108802,0.912359,0.709896,0.267916,0.500730
-0.062122,-0.252145,-0.136350,-0.098914,-0.141074,-0.087317,-0.170991,-0.169851,-0.045114,-0.114646,0.270494,-0.024896,0.705232,0.790384,0.435102,0.720471,-0.125277,-0.127237,-0.067815,0.020726,-0.079566,-0.191783,-0.198295,-0.259240,-0.099307,-0.138464,-0.096902,0.174878,1.047296,0.667063,0.308444,0.531389
0.089166,-0.172450,0.078199,0.021446,-0.074585,-0.072819,-0.126665,-0.106032,0.071490,0.002555,-0.152516,0.009627,0.788543,0.816561,0.414201,0.716805,0.042866,-0.025846,0.068079,0.176388,0.023194,-0.086203,-0.120850,-0.146772,-0.014052,-0.037979,-0.084883,0.349250,1.108966,0.731997,0.339479,0.558023
-0.054837,-0.252951,-0.088693,-0.058053,-0.116703,-0.078686,-0.158353,-0.189394,-0.030036,-0.059202,-0.153181,0.005881,0.842070,0.897800,0.465762,0.726503,-0.086165,-0.103883,-0.061661,0.044340,-0.015478,-0.161108,-0.170942,-0.229851,-0.084406,-0.096039,-0.091507,0.237448,1.012115,0.670739,0.374896,0.581798
0.029398,-0.189334,-0.018625,0.041711,-0.036891,-0.063150,-0.122821,-0.087064,0.061125,0.040700,-0.161333,0.023923,0.800898,0.856760,0.459270,0.756687,0.003317,-0.023201,0.061235,0.136259,0.072847,-0.005195,-0.115383,-0.129938,0.013670,-0.041343,-0.085571,0.338667,1.081303,0.658163,0.376551,0.575722
0.078802,-0.122728,0.040701,0.053277,0.003958,0.839193,-0.098902,-0.069437,0.072566,0.038673,-0.214500,0.030974,0.940551,1.049421,0.588860,0.831346,0.038723,0.031272,0.084401,0.186067,0.083292,0.037012,-0.097210,-0.134787,-0.024562,-0.026343,-0.080318,0.391805,1.069410,0.684701,0.353810,0.550336
0.060095,-0.138135,0.041345,0.042458,-0.007196,0.432683,-0.114085,-0.046026,0.069058,0.022970,-0.215368,0.017559,0.747485,0.779509,0.458801,0.791354,0.015375,0.004152,0.087739,0.179614,0.076144,0.108776,-0.098221,-0.094655,0.033802,-0.032513,-0.089515,0.184860,0.779603,0.529480,0.314011,0.550858
0.086970,-0.144905,-0.003064,0.037629,-0.041619,0.808654,-0.129333,-0.084473,0.088416,0.027278,-0.228511,0.029375,0.788787,0.774303,0.436281,0.762718,0.000352,-0.002630,0.044923,0.122469,0.083339,-0.001272,-0.134627,-0.155078,-0.034467,-0.057946,-0.089046,0.206215,0.794167,0.537507,0.316606,0.546426
0.211748,-0.021836,0.092638,0.189671,0.140355,0.883509,-0.076874,0.071121,0.234357,0.162313,-0.203422,0.037256,0.735276,0.723507,0.397597,0.716291,0.121296,0.123572,0.219607,0.290302,0.230662,0.111132,0.012131,-0.025272,0.218022,0.049869,-0.079296,0.245324,0.776548,0.536462,0.330959,0.584566
0.455268,0.050788,0.280184,0.281397,0.242694,0.918189,-0.014781,0.128136,0.287584,0.302623,-0.169387,0.082489,0.842788,0.813276,0.539846,0.853905,0.355925,0.324247,0.380180,0.401961,0.366671,0.401170,0.097822,0.041528,0.193707,0.106450,-0.069488,0.387629,0.859638,0.593264,0.379146,0.623497
0.025279,-0.194552,-0.057747,0.004422,-0.044163,0.945274,-0.145335,-0.130884,0.043653,0.013304,-0.234570,0.018412,0.746331,0.752220,0.454042,0.995943,-0.054913,-0.066612,0.009150,0.083779,0.023411,-0.054147,-0.158975,-0.176037,-0.066262,-0.093484,-0.090881,0.219168,1.070175,0.613853,0.408011,0.806154
0.178383,-0.064381,0.114239,0.142452,0.090868,1.009414,-0.087578,-0.010568,0.175810,0.142757,-0.207918,0.045787,0.839187,0.866603,0.497189,1.007602,0.159507,0.108870,0.185993,0.241290,0.169009,0.090746,-0.058160,-0.065747,0.085998,0.024298,-0.075753,0.494247,1.278911,0.789859,0.399453,0.818308
0.191796,-0.077650,0.115397,0.130776,0.135839,1.162813,-0.084800,0.065771,0.214768,0.194566,-0.202811,0.060424,0.987715,1.011303,0.555449,1.139441,0.132958,0.091550,0.187760,0.258258,0.196125,0.118166,-0.028931,-0.036269,0.144297,0.090638,-0.066534,0.583768,1.561719,1.097250,0.431534,0.677124
0.219086,-0.030872,0.136517,0.179274,0.156365,1.150403,-0.074394,0.090779,0.244686,0.191097,-0.197063,0.077425,1.097668,1.153123,0.618941,1.066311,0.176516,0.150650,0.244517,0.311112,0.262040,0.172971,0.011781,0.015693,0.231576,0.087797,-0.068645,0.541801,1.395219,1.026185,0.443412,0.694090
0.302156,0.063655,0.256917,0.257605,0.208401,1.217812,-0.047961,0.148684,0.281536,0.310069,-0.157531,0.094045,1.088140,1.127602,0.622540,1.075086,0.293232,0.240416,0.315219,0.388373,0.369457,0.225055,0.041872,0.006177,0.309942,0.191234,-0.065385,0.613378,1.442560,0.994055,0.456231,0.732400
0.222081,-0.026329,0.134844,0.156773,0.132069,1.210053,-0.101399,0.021008,0.158594,0.102210,-0.206222,0.037673,0.944380,1.042866,0.569937,1.025223,0.168252,0.126802,0.205867,0.241996,0.244028,0.099559,-0.041321,-0.042299,0.203851,0.037026,-0.072133,0.512699,1.406973,0.986383,0.448145,0.688032
0.248170,-0.020043,0.187065,0.197699,0.165629,1.211186,-0.080085,0.109409,0.245052,0.192001,-0.183288,0.058188,0.986986,1.072321,0.594851,1.041831,0.231615,0.178243,0.264712,0.317441,0.262421,0.226089,0.015184,0.013885,0.248596,0.111886,-0.069119,0.558870,1.437175,1.022908,0.466550,0.691604
0.256757,-0.014776,0.169086,0.172287,0.161092,1.234328,-0.088085,0.074027,0.228761,0.156020,-0.190919,0.084595,1.120426,1.177797,0.661117,1.118087,0.222589,0.150185,0.249905,0.275427,0.301611,0.148135,-0.028343,-0.022757,0.260826,0.083994,-0.069498,0.601742,1.603205,1.198877,0.680039,0.853891
0.283813,-0.007860,0.204861,0.218205,0.191800,1.230064,-0.070559,0.090539,0.253694,0.166699,-0.195601,0.054136,1.265053,1.546389,0.723231,1.148399,0.268918,0.186788,0.300954,0.337338,0.317469,0.176232,0.038454,0.090004,0.245238,0.112517,-0.063887,0.623886,1.367502,0.935127,0.515974,0.841883
0.269417,-0.006375,0.142398,0.163683,0.141245,1.223525,-0.087407,0.057822,0.253041,0.156017,-0.192253,0.060446,0.961541,1.035343,0.594175,1.092539,0.219388,0.139492,0.235168,0.245421,0.293384,0.128864,-0.031491,-0.044983,0.174243,0.044866,-0.075600,0.483960,1.233627,0.967603,0.547307,0.842991
0.241352,-0.034280,0.115875,0.129450,0.118476,1.252489,-0.107094,0.018578,0.145773,0.112655,-0.198451,0.047173,0.909733,0.988798,0.575736,1.069568,0.176960,0.106563,0.200954,0.208258,0.268133,0.101136,-0.063374,-0.057668,0.188281,0.014966,-0.074324,0.520229,1.327647,0.928073,0.479399,0.743960
0.458938,0.164095,0.421030,0.421315,0.422162,1.230273,0.004304,0.304174,0.556647,0.467699,-0.111772,0.146753,1.075818,1.093383,0.635978,1.080161,0.464983,0.382373,0.464169,0.452465,0.566019,0.334573,0.177333,0.112258,0.551854,0.272504,-0.041885,0.866139,1.538756,1.104929,0.649052,1.016520
0.451295,0.179142,0.422417,0.464856,0.405046,1.304086,0.006231,0.266210,0.483334,0.408013,-0.150152,0.107711,0.998287,1.067907,0.602427,1.010987,0.483880,0.414311,0.565801,0.566098,0.705256,0.403798,0.173070,0.139521,0.500380,0.298477,-0.051384,0.786259,1.589972,1.075164,0.538564,0.744961
0.432608,0.067356,0.272382,0.260463,0.233799,1.260862,-0.055983,0.142059,0.440997,0.367864,-0.136018,0.157248,1.249057,1.252878,0.742543,1.294441,0.288763,0.197910,0.307398,0.317814,0.370922,0.181400,0.042466,-0.026409,0.291400,0.098629,-0.064262,0.631568,1.421823,1.050288,0.586178,1.100251
0.319817,0.058173,0.194863,0.241686,0.209326,1.279230,-0.067212,0.062112,0.250773,0.149865,-0.198677,0.028809,0.785146,0.907534,0.526913,1.060772,0.236879,0.207434,0.313862,0.340528,0.363906,0.227545,-0.013605,-0.047835,0.183425,0.066529,-0.072795,0.506404,1.363463,1.000616,0.482718,0.901446
0.199858,-0.056380,0.096352,0.102684,0.109481,1.253894,-0.109182,-0.019273,0.157553,0.102702,-0.186199,0.063241,0.973771,1.040892,0.602475,1.173024,0.139278,0.070796,0.166335,0.194294,0.227314,0.108496,-0.086028,-0.114252,0.132008,0.001828,-0.072256,0.606844,1.501935,1.148349,0.654862,0.895914
0.206351,-0.055202,0.135631,0.140601,0.154675,1.270997,-0.105090,-0.014434,0.155128,0.079108,-0.197960,0.035951,0.902325,1.031598,0.582481,1.011363,0.153090,0.109933,0.214142,0.255590,0.316901,0.141592,-0.039680,-0.086556,0.205910,0.009305,-0.073375,0.542486,1.440801,1.125508,0.632573,0.840233
0.249739,0.006158,0.197757,0.187270,0.186080,1.262475,-0.086902,0.090082,0.195662,0.152500,-0.191917,0.069407,1.034503,1.112570,0.618785,1.048734,0.204229,0.132587,0.217478,0.297613,0.329653,0.177755,-0.029827,-0.047858,0.223584,0.072686,-0.066659,0.673203,1.774770,1.414493,0.702470,0.919237
0.253541,0.009100,0.173512,0.181726,0.194385,1.221488,-0.082776,0.100815,0.253734,0.176792,-0.188544,0.031275,1.220247,1.440281,0.720396,1.161236,0.206984,0.167679,0.268604,0.313630,0.290092,0.249420,-0.008345,0.004070,0.195444,0.058206,-0.060290,0.689254,1.457571,1.202729,0.631542,0.884948
0.329738,0.049354,0.212123,0.219052,0.207825,1.254347,-0.083291,0.097654,0.210372,0.124613,-0.199247,0.033331,0.800047,0.902020,0.577753,1.057651,0.295589,0.190194,0.285737,0.349612,0.372432,0.193888,-0.014242,-0.044501,0.269753,0.053048,-0.071170,0.533029,1.409477,1.168750,0.647491,0.978714
0.520042,0.158573,0.272985,0.274077,0.265114,1.227102,-0.068305,0.158126,0.268160,0.186043,-0.177465,0.047688,0.843486,1.014725,0.672233,1.117121,0.402953,0.289494,0.353763,0.383771,0.366081,0.278698,0.031243,0.013859,0.252937,0.087871,-0.071304,0.548373,1.392262,1.189080,0.736764,1.072798
0.399274,0.078283,0.216179,0.226723,0.223286,0.939474,-0.079862,0.117664,0.244264,0.140087,-0.188231,0.031550,0.765554,0.888790,0.596347,1.057170,0.291151,0.211898,0.294371,0.336727,0.352776,0.204316,0.000490,-0.013050,0.261818,0.063824,-0.071065,0.542100,1.431743,1.194982,0.631840,0.990895
0.396218,0.082883,0.219757,0.230239,0.231660,1.352430,-0.074094,0.151738,0.297939,0.185825,-0.180465,0.048584,0.935583,1.087784,0.668542,1.090468,0.308051,0.216008,0.298843,0.353334,0.344660,0.218535,0.017799,-0.036662,0.279734,0.064105,-0.063133,0.707675,1.667963,1.362263,0.699672,1.011704
0.468428,0.120433,0.307214,0.272899,0.311360,0.203619,-0.056076,0.208381,0.276459,0.165928,-0.178000,0.067951,1.003705,1.104368,0.669203,1.097927,0.358982,0.270892,0.374070,0.431399,0.432385,0.225103,0.043785,-0.021126,0.431462,0.133217,-0.065597,0.618188,1.605459,1.378171,0.691990,1.005486
0.352290,0.070863,0.179678,0.224416,0.195020,0.001373,-0.075214,0.113336,0.296458,0.138382,-0.176313,0.051528,0.925438,1.023263,0.658110,1.162214,0.282399,0.196514,0.270328,0.333604,0.333601,0.167479,-0.009351,-0.054216,0.266840,0.086606,-0.068866,0.647843,1.588579,1.281948,0.689082,1.059515
0.482231,0.103826,0.284733,0.273792,0.291115,0.033074,-0.064062,0.198827,0.361761,0.209647,-0.160308,0.078790,0.998756,1.083100,0.694918,1.315423,0.365341,0.254990,0.318210,0.390132,0.421152,0.215368,0.012355,-0.021414,0.461240,0.138104,-0.064623,0.655280,1.586143,1.287209,0.678120,1.040579
0.534138,0.119920,0.271353,0.276549,0.256514,0.031767,-0.049248,0.215730,0.393528,0.273836,-0.144200,0.097545,1.012186,1.178442,0.759169,1.273093,0.380244,0.241530,0.295620,0.367474,0.332600,0.243110,0.014128,-0.042732,0.323333,0.089756,-0.065104,0.699322,1.637096,1.346734,0.824876,1.649889
0.429234,0.102911,0.281927,0.287790,0.224815,-0.016973,-0.034129,0.197684,0.373214,0.199625,-0.157651,0.083649,0.949647,1.026772,0.621264,1.110391,0.367035,0.269289,0.310996,0.409264,0.321522,0.262882,0.038120,-0.000370,0.385097,0.124471,-0.060751,0.737392,1.624969,1.307540,0.717274,1.199103
0.409243,0.114971,0.285588,0.315212,0.263322,0.017912,-0.035382,0.191182,0.393163,0.171747,-0.181371,0.051882,0.922715,1.085678,0.603558,0.932351,0.422316,0.317671,0.411988,0.459264,0.516170,0.327309,0.077706,0.095022,0.493797,0.176619,-0.058662,0.802257,1.846291,1.338087,0.749865,1.137804
0.335037,0.013348,0.118919,0.153963,0.107908,-0.082401,-0.101393,0.065060,0.209822,0.080001,-0.184711,0.077766,0.990148,0.987907,0.596807,0.928805,0.240974,0.149492,0.178864,0.270218,0.212392,0.147615,-0.074471,-0.124547,0.219076,-0.005720,-0.079653,0.446547,1.327247,1.277740,0.757227,1.010635
0.418561,0.105780,0.256949,0.276517,0.209332,-0.062854,-0.073224,0.116746,0.357439,0.136976,-0.172232,0.081098,0.888635,0.856549,0.528228,0.859951,0.333921,0.245062,0.311752,0.385142,0.375052,0.234340,0.012778,-0.049156,0.358493,0.033912,-0.074127,0.548323,1.198299,1.023242,0.659397,1.018495
0.420050,0.107730,0.262229,0.278942,0.244031,-0.073730,-0.053755,0.164469,0.286560,0.113141,-0.181099,0.072471,0.917502,0.857464,0.528582,0.929414,0.279235,0.246417,0.288736,0.404446,0.316496,0.243618,0.009736,-0.017573,0.225997,0.073119,-0.077161,0.470490,1.168512,1.030510,0.679788,0.996186
0.353925,0.035156,0.177336,0.203291,0.183593,-0.086673,-0.069000,0.169908,0.320999,0.169473,-0.159801,0.104598,1.001620,0.990745,0.624194,1.022784,0.287567,0.192065,0.237050,0.346828,0.270676,0.193207,-0.024892,-0.063374,0.258282,0.079540,-0.068430,0.608642,1.391165,1.239691,0.760510,1.096529
0.386649,0.060418,0.225403,0.246025,0.240179,-0.077416,-0.053667,0.199724,0.334749,0.158162,-0.166377,0.085597,0.892968,0.850439,0.512121,0.959131,0.325477,0.242021,0.308452,0.408298,0.368188,0.265932,0.019813,0.003353,0.364141,0.110613,-0.064184,0.670402,1.608090,1.241286,0.677907,1.147335
0.356954,0.067241,0.262686,0.289490,0.285468,-0.072947,-0.027522,0.262264,0.450372,0.245693,-0.150224,0.091437,0.910551,0.914715,0.587707,0.975453,0.355310,0.273299,0.362119,0.485504,0.427745,0.316475,0.064464,0.018020,0.431228,0.171986,-0.056844,0.703655,1.481229,1.260522,0.702382,1.119758
0.428818,0.075043,0.268394,0.302829,0.285870,-0.065861,-0.051142,0.266623,0.379336,0.200196,-0.155450,0.098418,0.939018,0.916284,0.553432,0.986485,0.405176,0.275334,0.342982,0.475710,0.398758,0.294177,0.047273,0.055461,0.386674,0.115879,-0.062447,0.681996,1.494131,1.225382,0.772762,1.243617
0.349878,0.049059,0.229151,0.253833,0.247569,-0.078819,-0.049905,0.229695,0.350055,0.169067,-0.163039,0.088562,0.918115,0.901291,0.519068,0.912857,0.322928,0.246838,0.307597,0.431726,0.406853,0.262069,0.041637,-0.005037,0.395472,0.132479,-0.062070,0.680566,1.485635,1.193990,0.655011,1.025174
0.357902,0.070192,0.235195,0.293068,0.262118,-0.062931,-0.020348,0.291785,0.465077,0.318370,-0.103091,0.172881,1.122142,0.999203,0.546271,0.926167,0.329366,0.277771,0.312919,0.439954,0.354033,0.317459,0.057978,0.032058,0.421619,0.180435,-0.049610,0.873169,1.628668,1.257581,0.719855,1.219377
0.406401,0.127768,0.336436,0.393181,0.357023,-0.038009,-0.010614,0.375576,0.515411,0.380776,-0.114408,0.166338,1.093978,0.970721,0.541197,0.981908,0.474240,0.369077,0.432272,0.508385,0.495552,0.395941,0.153942,0.041378,0.594009,0.300158,-0.043383,0.984336,1.646246,1.201849,0.701177,1.237123
0.421382,0.141516,0.339450,0.349724,0.322027,-0.080704,-0.005729,0.253206,0.417706,0.248499,-0.140289,0.099254,0.913052,0.856568,0.481540,0.951224,0.391018,0.393378,0.417506,0.529358,0.434000,0.367541,0.111343,0.106126,0.332243,0.111724,-0.061916,0.671986,1.337931,1.116265,0.687953,1.201397
0.290471,0.037235,0.211473,0.243256,0.175390,-0.095521,-0.042001,0.180628,0.282945,0.089972,-0.167138,0.079680,0.869875,0.842521,0.474483,0.907937,0.301512,0.262826,0.322145,0.429620,0.352972,0.321401,0.010303,0.030052,0.313880,0.083132,-0.068856,0.586399,1.303764,1.084805,0.674728,1.197570
0.549790,0.154302,0.440614,0.350986,0.346317,-0.051014,-0.019349,0.455647,0.513813,0.371480,-0.090806,0.195205,1.246547,1.090490,0.741499,1.183503,0.579098,0.472936,0.504385,0.575146,0.607759,0.349991,0.149350,0.150464,0.505231,0.336791,-0.047796,0.861890,1.526481,1.209520,0.715860,1.279040
0.537986,0.204136,0.488123,0.396952,0.368949,-0.058523,0.013252,0.391341,0.540847,0.357773,-0.103555,0.188185,1.269542,1.115450,0.654151,1.015103,0.475437,0.415281,0.484854,0.606632,0.529880,0.505231,0.147337,0.060007,0.499698,0.264511,-0.049929,0.825937,1.521049,1.200051,0.658472,1.059557
0.549699,0.207498,0.438044,0.424802,0.403517,-0.064657,0.012493,0.329154,0.471252,0.273426,-0.125109,0.152519,1.169970,1.064412,0.605311,0.916473,0.537556,0.450398,0.537486,0.633876,0.541062,0.587249,0.142328,0.128029,0.454609,0.254959,-0.054807,0.735897,1.455329,1.182999,0.712439,1.075592
0.433935,0.094066,0.317310,0.322770,0.286202,-0.076776,-0.026197,0.312590,0.416161,0.234847,-0.133747,0.141283,1.265942,1.262868,0.631355,0.984227,0.413877,0.336324,0.399998,0.514035,0.404834,0.381922,0.082150,0.066927,0.364229,0.195121,-0.054671,0.742782,1.502408,1.492759,0.838169,1.162179
0.466736,0.204027,0.474031,0.452469,0.451056,-0.045061,0.052790,0.457277,0.554850,0.441577,-0.071619,0.193675,1.075879,0.906130,0.472894,0.905086,0.546727,0.476370,0.558831,0.663649,0.540609,0.744789,0.226677,0.257828,0.604487,0.347373,-0.026147,1.206401,1.862847,1.065047,0.580613,1.047866
0.334045,0.051903,0.292973,0.293636,0.258409,-0.082501,-0.021070,0.256087,0.423293,0.246284,-0.137258,0.114100,0.922283,0.860618,0.479625,0.992505,0.378653,0.314727,0.409594,0.492680,0.421495,0.410366,0.105298,0.095505,0.485218,0.266092,-0.050133,0.770301,1.356634,1.002593,0.515471,1.001954
0.368312,0.124763,0.276987,0.305541,0.279186,-0.087227,-0.013420,0.280014,0.413128,0.251510,-0.129322,0.136942,1.041086,1.006739,0.537194,1.007904,0.393293,0.358361,0.380501,0.451215,0.390895,0.422776,0.065761,0.070506,0.381139,0.240787,-0.054927,0.770302,1.375838,1.047423,0.625146,1.082985
0.265280,0.051275,0.191305,0.234568,0.250846,-0.095376,-0.026554,0.193929,0.329493,0.166375,-0.159253,0.081952,0.876158,0.848633,0.441621,0.906257,0.322730,0.283680,0.344336,0.450979,0.358595,0.448704,0.059290,0.083068,0.365763,0.175757,-0.058516,0.659559,1.233637,0.937473,0.532098,1.116159
0.118681,-0.040134,0.234778,0.274156,0.288366,-0.085575,0.001226,0.364934,0.447259,0.324322,-0.131333,0.137369,0.950337,0.876089,0.429331,0.918657,0.229445,0.308529,0.434338,0.558569,0.527748,0.501334,0.181058,0.238602,0.420185,0.278484,-0.049449,0.737663,1.382203,1.045558,0.520731,1.039703
0.138275,-0.052365,0.200860,0.216898,0.215489,-0.116329,-0.047277,0.212291,0.263287,0.151346,-0.155971,0.089397,0.796560,0.723359,0.378614,0.852903,0.205499,0.247525,0.314475,0.417798,0.364716,0.422517,0.074896,0.046490,0.350585,0.171878,-0.059479,0.607961,1.094895,0.771820,0.398773,1.047450
0.248038,0.021661,0.231778,0.224782,0.211202,-0.111510,-0.026371,0.280291,0.331625,0.200612,-0.145686,0.109317,0.889097,0.842856,0.483806,1.074905,0.287577,0.277124,0.341122,0.410415,0.371664,0.385844,0.077315,0.096228,0.258515,0.164985,-0.059692,0.644306,1.139884,0.901782,0.615007,1.207131
0.426637,0.098485,0.373569,0.396493,0.348511,-0.071807,0.020831,0.398011,0.488292,0.293052,-0.111903,0.143566,0.909189,0.872367,0.548494,0.942712,0.448112,0.437560,0.492718,0.586591,0.566961,0.537097,0.170773,0.227745,0.399413,0.256533,-0.050406,0.723089,1.141579,0.821029,0.469459,1.005507
0.115482,-0.013475,0.216189,0.248269,0.240483,-0.112712,-0.030641,0.223188,0.272889,0.165767,-0.165348,0.082760,0.814326,0.809240,0.488932,1.029451,0.242442,0.324224,0.368876,0.470435,0.410511,0.421891,0.109633,0.060431,0.314532,0.149896,-0.061255,0.588604,1.104773,0.825828,0.460980,0.954531
0.159182,0.001071,0.255121,0.247946,0.218977,-0.107663,-0.016883,0.244220,0.316292,0.194167,-0.148441,0.098508,0.929944,0.820772,0.431618,0.826073,0.254976,0.299954,0.365839,0.437697,0.389709,0.408835,0.110554,0.119178,0.315126,0.143283,-0.058463,0.617979,1.089718,0.821344,0.488559,1.157444
0.159627,0.014346,0.316697,0.333069,0.253445,-0.106177,-0.009122,0.268419,0.372493,0.230846,-0.152267,0.095177,0.875769,1.055101,0.563847,0.811693,0.339207,0.365984,0.424845,0.526900,0.500225,0.462895,0.179552,0.190723,0.343707,0.248788,-0.043913,0.902972,1.490742,0.957522,0.476728,0.818583
0.191631,0.003904,0.229183,0.236658,0.220694,-0.114915,-0.035118,0.236345,0.324846,0.215901,-0.147359,0.122633,1.073288,1.010093,0.553363,0.897283,0.300275,0.276859,0.324949,0.393014,0.338155,0.341557,0.082228,0.054423,0.368004,0.194899,-0.054648,0.677845,1.320585,1.038342,0.497414,0.852378
0.134427,-0.037932,0.178165,0.189087,0.191245,-0.122708,-0.058578,0.232382,0.287600,0.239277,-0.145458,0.143423,1.182932,1.057944,0.530011,0.826118,0.224667,0.223754,0.279827,0.345825,0.315958,0.301565,0.051464,0.063804,0.285672,0.182981,-0.055094,0.765277,1.482589,1.133645,0.545496,0.857728
0.101431,-0.035518,0.190397,0.199287,0.182844,-0.120551,-0.046712,0.221342,0.299291,0.179209,-0.163271,0.099253,1.006312,1.085116,0.603236,0.928551,0.210696,0.226581,0.309281,0.371888,0.310592,0.289086,0.078817,0.061245,0.285835,0.165994,-0.057166,0.681660,1.363698,1.089753,0.559113,0.870421
0.085529,-0.038311,0.151973,0.174368,0.172843,-0.128284,-0.052705,0.184779,0.281327,0.160298,-0.172092,0.069969,0.861520,0.897379,0.503956,0.896577,0.182212,0.236104,0.278153,0.363092,0.299659,0.317630,0.072817,0.044407,0.241498,0.145444,-0.059503,0.572214,1.330168,1.123506,0.504393,0.785592
0.089307,-0.053155,0.144888,0.170034,0.156599,-0.129796,-0.067281,0.152883,0.280660,0.149498,-0.172557,0.072667,0.838788,0.883649,0.525704,0.938072,0.243785,0.210359,0.262326,0.368649,0.308987,0.286717,0.059743,0.024295,0.249690,0.148067,-0.060157,0.671261,1.374383,1.146237,0.623323,1.136441
0.075475,-0.085879,0.104038,0.107769,0.074565,-0.148956,-0.087920,0.110377,0.198698,0.139414,-0.168928,0.080466,0.838697,0.871542,0.494563,0.811464,0.129969,0.133978,0.173704,0.246299,0.163293,0.194702,-0.022364,-0.000050,0.086505,0.059873,-0.064347,0.585501,1.069067,0.923264,0.505193,0.841754
0.175299,0.035697,0.250436,0.251183,0.212160,-0.115475,-0.052535,0.277615,0.312244,0.225297,-0.154418,0.118470,0.904181,0.962777,0.531308,0.755929,0.298856,0.315068,0.400540,0.428111,0.400909,0.421973,0.119606,0.167697,0.308778,0.220628,-0.054445,0.679495,1.113553,0.953895,0.573793,0.890821
0.441909,0.214100,0.603433,0.491059,0.436220,-0.046003,0.024353,0.442504,0.521214,0.361732,-0.141859,0.131484,0.988163,1.029763,0.580529,0.846160,0.588169,0.562819,0.588536,0.692210,0.608386,0.451020,0.301296,0.212652,0.698251,0.344121,-0.049441,0.718992,1.106319,0.970265,0.560911,0.934282
0.786824,0.447247,0.821033,0.703732,0.666429,-0.007142,0.110724,0.655206,0.723778,0.616660,-0.073416,0.224045,1.278423,1.056451,0.532398,0.725639,0.837213,0.748513,0.763725,0.900855,0.796704,0.823516,0.349114,0.443183,0.576993,0.448447,-0.030094,0.857829,1.209451,1.043205,0.685588,1.133238
0.309713,0.102842,0.370965,0.317726,0.277215,-0.093062,-0.023801,0.295840,0.377685,0.313199,-0.128615,0.200083,2.442428,1.173129,0.651387,0.866625,0.371915,0.346402,0.391203,0.464889,0.381513,1.282884,0.141528,0.081042,0.406321,0.200532,-0.055032,0.691075,1.166126,0.999908,0.560832,0.845885
0.280344,0.087878,0.372756,0.299589,0.254602,-0.096329,-0.026306,0.243352,0.338465,0.252777,-0.155990,0.121631,2.207370,0.983184,0.561028,0.780453,0.336050,0.345058,0.366149,0.450734,0.372330,0.860382,0.111220,0.088367,0.366242,0.163230,-0.059598,0.577473,1.032744,0.933719,0.490636,0.788441
0.356512,0.155315,0.416545,0.408183,0.393931,-0.069837,0.002083,0.399483,0.456997,0.362152,-0.144098,0.132773,1.850784,1.246150,0.745883,0.994448,0.435966,0.422219,0.479843,0.572091,0.510844,1.299429,0.278945,0.180306,0.681678,0.339635,-0.045372,0.756940,1.173329,1.121491,0.665907,0.875186
0.344099,0.110229,0.408632,0.286926,0.293737,-0.092998,-0.023367,0.314146,0.383770,0.349998,-0.137048,0.182877,2.276731,1.588364,0.921884,1.095913,0.354416,0.329473,0.329049,0.431301,0.348598,1.798105,0.106190,0.088903,0.449198,0.194280,-0.052604,0.722872,1.178387,1.301909,0.684867,0.866660
0.380812,0.132731,0.360465,0.304907,0.274770,-0.096627,-0.026579,0.211298,0.394262,0.380060,-0.135911,0.147103,2.174664,1.261413,0.776713,1.082870,0.370523,0.359952,0.362077,0.470546,0.350265,1.842157,0.097513,0.078843,0.455229,0.209355,-0.052717,0.669298,1.137134,1.129919,0.635591,0.875841
0.318262,0.095682,0.348865,0.270814,0.263255,0.085332,-0.018767,0.192207,0.286153,0.227663,-0.163723,0.120633,2.146876,1.219522,0.718450,0.972278,0.316945,0.320715,0.356689,0.474837,0.338021,1.898423,0.266375,0.065337,0.352731,0.126632,-0.057017,0.574119,1.157681,1.157605,0.639764,0.836689
0.318549,0.111737,0.295599,0.268355,0.271076,-0.029826,-0.041635,0.168421,0.254476,0.213209,-0.159808,0.116721,2.220402,1.229219,0.751333,0.973293,0.350145,0.290576,0.295343,0.432122,0.265499,2.075361,0.123570,0.060501,0.347568,0.098565,-0.053361,0.603583,1.233094,1.314427,0.712683,0.887755
0.294877,0.065630,0.277054,0.231879,0.221938,0.119498,-0.055665,0.223228,0.251607,0.245834,-0.162736,0.117635,2.256515,1.397986,0.767605,1.044472,0.329622,0.281354,0.263455,0.382469,0.217171,2.002013,0.189469,0.031083,0.349587,0.099168,-0.059051,0.606067,1.139490,1.112859,0.694332,0.965079
0.646433,0.314583,0.690865,0.628617,0.532253,0.145480,0.048508,0.561778,0.518436,0.262042,-0.154446,0.117910,2.150522,1.168313,0.696450,1.237139,0.822180,0.750272,0.767429,0.882332,0.784962,2.333648,0.513918,0.243947,0.746259,0.419801,-0.036015,0.766004,1.114566,1.173966,0.960056,1.700185
0.290716,0.056322,0.316176,0.276191,0.252430,0.318389,-0.042632,0.242778,0.265952,0.193821,-0.165958,0.135878,2.197770,1.411001,0.907096,1.362265,0.314624,0.328913,0.336180,0.469261,0.341623,2.116383,0.245171,0.036916,0.463428,0.156224,-0.059627,0.589365,1.073412,1.148904,0.809473,1.255780
0.482051,0.176164,0.365190,0.334897,0.317786,0.178028,0.013008,0.212409,0.345984,0.222327,-0.135007,0.164956,2.390634,1.318572,0.783061,1.051320,0.459712,0.402312,0.429447,0.538596,0.437666,2.330053,0.203004,0.035201,0.544582,0.156143,-0.050037,0.627282,1.123715,1.183335,0.848581,1.293705
0.321515,0.182220,0.417421,0.418722,0.415137,0.247669,0.013027,0.289754,0.424226,0.272528,-0.145147,0.157194,2.336067,1.309355,0.833899,1.053894,0.399895,0.468734,0.538947,0.661332,0.552648,2.304985,0.349016,0.191946,0.567367,0.219145,-0.051731,0.601524,1.111918,1.184591,0.879821,1.388273
0.324313,0.123416,0.319750,0.308555,0.314145,0.283232,-0.017696,0.212478,0.365389,0.263650,-0.124299,0.200487,2.673699,1.822059,0.941765,1.082203,0.339050,0.334378,0.380207,0.491708,0.367225,2.388596,0.216528,-0.009698,0.530008,0.223239,-0.050906,0.628530,1.219727,1.491001,0.938984,1.229309
0.366422,0.162632,0.307782,0.273052,0.264725,0.257745,0.005431,0.184904,0.271582,0.228877,-0.131715,0.169090,2.552104,1.621708,0.984115,1.194951,0.353833,0.324823,0.345511,0.466362,0.328612,2.283940,0.192392,-0.000308,0.533405,0.132489,-0.052985,0.702392,1.505547,1.613913,1.065490,1.329644
0.308224,0.075961,0.270342,0.244496,0.209892,0.255150,-0.038731,0.128674,0.207656,0.155457,-0.164474,0.135949,2.422077,1.569626,1.016627,1.284755,0.302233,0.281428,0.293710,0.428502,0.267030,2.269600,0.176949,0.084372,0.444777,0.122995,-0.059331,0.602922,1.273466,1.477123,1.115386,1.411007
0.344856,0.097034,0.289799,0.275153,0.249984,0.281330,0.001104,0.180734,0.227432,0.160799,-0.153597,0.137281,2.479557,1.610008,0.963604,1.185081,0.367750,0.344393,0.356092,0.444930,0.329077,2.240377,0.208431,0.038646,0.537906,0.126884,-0.057614,0.622100,1.291731,1.497475,1.009748,1.356408
0.347284,0.123850,0.381296,0.331678,0.275020,0.304910,-0.009988,0.243115,0.292637,0.163499,-0.149805,0.149151,2.501897,1.622525,0.997822,1.339400,0.438587,0.384555,0.430026,0.530063,0.407128,2.402779,0.237082,0.132636,0.497393,0.169008,-0.052014,0.690121,1.402652,1.610671,1.056881,1.351152
0.262041,0.055729,0.255340,0.247558,0.224953,0.280092,-0.016177,0.152234,0.269649,0.177394,-0.158851,0.127876,2.424307,1.552422,0.955727,1.157206,0.302241,0.289109,0.319539,0.441460,0.298918,2.295907,0.200492,0.086952,0.503742,0.167385,-0.051887,0.681841,1.350587,1.570459,1.056749,1.369671
0.272980,0.095606,0.338067,0.326026,0.264488,0.304967,0.264216,0.309581,0.312119,0.228132,-0.146778,0.141939,2.449766,1.611797,0.976195,1.133662,0.350404,0.352562,0.400429,0.510294,0.351292,2.279731,0.237381,0.177935,0.594047,0.199879,-0.050320,0.733645,1.378235,1.508132,1.095574,1.388032
0.286035,0.077454,0.273794,0.254024,0.221690,0.286790,0.335166,0.176563,0.236012,0.157691,-0.155997,0.130748,2.405138,1.475592,0.916105,1.103777,0.291787,0.288451,0.316603,0.443192,0.322171,2.316771,0.194453,0.034052,0.421867,0.137301,-0.058361,0.593783,1.283625,1.500029,1.092010,1.384519
0.415038,0.215925,0.481597,0.453021,0.378887,0.314294,0.635706,0.284758,0.331885,0.179681,-0.128971,0.145963,2.418190,1.512580,0.919415,1.095964,0.485758,0.525645,0.586319,0.687154,0.569785,2.527505,0.224605,0.148124,0.644099,0.192590,-0.049631,0.679993,1.452353,1.591885,1.095609,1.349753
0.575377,0.240482,0.492810,0.465544,0.410368,0.325240,0.648744,0.350657,0.489807,0.329108,-0.112520,0.172028,2.478590,1.573864,1.055890,1.207500,0.505448,0.501921,0.546231,0.661735,0.584119,2.384202,0.301011,0.164108,0.625854,0.307236,-0.042811,0.694566,1.211307,1.410968,1.138536,1.572782
0.547861,0.211750,0.467198,0.415919,0.369273,0.310515,0.584632,0.333971,0.375768,0.286245,-0.108485,0.180539,2.486546,1.624334,1.062279,1.264283,0.461900,0.435113,0.465729,0.591341,0.478633,2.269062,0.410172,0.104587,0.545015,0.168918,-0.051040,0.668686,1.252159,1.474503,1.234958,1.588570
0.603345,0.254228,0.473094,0.434129,0.384514,0.300620,0.565471,0.361196,0.418499,0.274703,-0.112732,0.205341,2.556254,1.712046,1.152228,1.328199,0.557636,0.464234,0.490800,0.597162,0.503856,2.402001,0.447743,0.138458,0.507325,0.246464,-0.044154,0.819814,1.753426,2.098562,1.432248,1.744605
0.480656,0.184042,0.415297,0.415995,0.375555,0.301680,0.652768,0.377731,0.441862,0.351666,-0.099412,0.228457,2.585061,1.710501,1.095224,1.305555,0.456829,0.420596,0.472299,0.595406,0.498336,2.279589,0.506171,0.156177,0.595247,0.282277,-0.046468,0.794481,1.483793,1.686365,1.258083,1.628529
0.785816,0.386412,0.711001,0.651073,0.569266,0.332653,0.790540,0.552772,0.476551,0.356810,-0.075331,0.272541,2.965032,1.885998,1.247068,1.315899,0.911171,0.851627,0.910327,0.888575,1.062778,3.064303,0.593176,0.572572,0.605036,0.404919,-0.027044,0.995254,1.665674,1.815863,1.386014,1.609619
0.509134,0.200839,0.371002,0.368118,0.347147,0.296867,0.727438,0.286452,0.328878,0.220396,-0.126935,0.170784,2.412639,1.692759,1.078359,1.318238,0.434469,0.375945,0.421397,0.554074,0.441341,1.596746,0.711276,0.044994,0.361345,0.108527,-0.057782,0.635814,1.393292,1.668275,1.229821,1.428983
0.708444,0.325121,0.593634,0.590113,0.468788,0.303626,0.661658,0.483103,0.547704,0.379575,-0.136468,0.191506,2.669750,1.741165,1.162897,1.484135,0.724975,0.574883,0.605555,0.709839,0.586828,1.811551,1.010515,0.269168,0.731491,0.419487,-0.039976,0.836566,1.517321,1.702205,1.292922,1.528802
0.304518,0.051863,0.257180,0.277335,0.230361,0.278607,0.738200,0.164991,0.227071,0.088971,-0.160370,0.163379,1.891041,1.823518,1.103304,1.351824,0.306200,0.285701,0.331924,0.445445,0.354648,0.730511,0.778622,0.046873,0.318506,0.133344,-0.059716,0.671660,1.554237,1.875740,1.299237,1.446668
0.323443,0.060090,0.261007,0.261449,0.214233,0.276493,0.758240,0.168694,0.217551,0.071898,-0.163381,0.139478,1.625822,1.749242,1.118293,1.341565,0.294117,0.275202,0.330141,0.431188,0.328060,0.184719,0.951328,0.035848,0.302045,0.100173,-0.061729,0.659398,1.581809,1.961546,1.399015,1.476589
0.333667,0.099004,0.308961,0.289770,0.293458,0.288880,0.813706,0.289209,0.339415,0.226689,-0.110143,0.145203,1.353384,1.480949,0.946696,1.119217,0.334040,0.321637,0.373019,0.513009,0.410129,0.315506,0.927090,0.111576,0.364127,0.154520,-0.052666,0.798544,1.485897,1.670258,1.271288,1.483409
0.315888,0.056533,0.246171,0.258126,0.211502,0.274316,0.790225,0.158174,0.229206,0.056660,-0.171082,0.123691,1.292082,1.458389,0.917205,1.153598,0.349034,0.282433,0.322194,0.429090,0.325328,0.225703,0.859944,0.026458,0.304517,0.076348,-0.065139,0.600746,1.416449,1.657238,1.265239,1.495293
0.357036,0.081458,0.307274,0.345087,0.249876,0.336967,0.761793,0.178658,0.228346,0.046513,-0.172962,0.133910,1.316768,1.454693,0.908552,1.176051,0.380592,0.363905,0.427643,0.488991,0.393027,0.232803,1.117677,0.043033,0.296400,0.085321,-0.068475,0.613625,1.480563,1.647674,1.253790,1.515716
0.362335,0.091693,0.294198,0.328967,0.257684,0.296010,0.823142,0.212384,0.289333,0.089177,-0.155413,0.152037,1.357932,1.509511,0.932193,1.223114,0.387345,0.355508,0.410047,0.521989,0.575052,0.312949,0.963162,0.119429,0.361129,0.095119,-0.067171,0.625655,1.533121,1.648746,1.252874,1.625843
0.521921,0.183040,0.417155,0.423466,0.349088,0.342295,0.784417,0.290604,0.364946,0.140065,-0.153265,0.161434,1.368006,1.516832,0.917921,1.298526,0.489639,0.436010,0.494019,0.579345,0.563780,0.314467,1.103679,0.156114,0.394746,0.174018,-0.062220,0.698446,1.541569,1.747829,1.324254,1.752556
0.796143,0.338371,0.500713,0.501274,0.449411,0.100213,0.838660,0.449864,0.463341,0.307888,-0.110169,0.226052,1.610286,1.670605,1.073363,1.503434,0.680629,0.555080,0.605985,0.686188,0.691899,0.363412,1.009765,0.235919,0.425827,0.195367,-0.050094,0.884406,1.751129,2.129536,1.575642,2.054222
0.603648,0.391376,0.654934,0.653073,0.554590,0.105041,0.771807,0.415695,0.450022,0.288517,-0.146234,0.180663,1.490412,1.632492,0.975407,1.393190,0.714374,0.668250,0.804764,0.824950,0.769941,0.625392,1.258140,0.424138,0.492312,0.453532,-0.047197,0.795528,1.595463,1.889899,1.374973,1.573552
0.538066,0.255088,0.439256,0.443765,0.376664,-0.043562,0.767894,0.257941,0.372247,0.223942,-0.153241,0.184407,1.520455,1.648912,1.041341,1.174992,0.547202,0.449787,0.512176,0.562334,0.575724,0.352790,1.127072,0.173276,0.379624,0.163366,-0.055938,0.764827,1.599319,1.854613,1.320988,1.434385
0.533116,0.293044,0.460239,0.464757,0.421890,-0.061523,0.830091,0.291633,0.433850,0.232378,-0.160733,0.145047,1.393150,1.568588,0.978688,1.191772,0.533886,0.484633,0.556139,0.632674,0.624110,0.358169,1.065431,0.159804,0.330348,0.213872,-0.051760,0.701199,1.542401,1.893858,1.321906,1.417021
0.511986,0.248610,0.433939,0.438339,0.370896,-0.046668,0.811903,0.295703,0.383557,0.198789,-0.164774,0.125006,1.309189,1.449398,0.880064,1.199841,0.538241,0.477111,0.514812,0.624110,0.640823,0.397054,1.101994,0.179340,0.372755,0.193965,-0.057237,0.635040,1.528001,1.908569,1.291217,1.429728
0.489703,0.236177,0.444681,0.431521,0.365739,-0.064588,0.793356,0.298852,0.360241,0.182914,-0.167461,0.126824,1.312504,1.576165,0.890625,1.070643,0.518537,0.457355,0.501457,0.616949,0.653304,0.396856,1.078181,0.136609,0.330044,0.184092,-0.058803,0.669304,1.449318,1.814983,1.294951,1.374730
0.492165,0.227647,0.401595,0.412082,0.352123,-0.075236,0.802630,0.303309,0.379106,0.235628,-0.146617,0.148342,1.227905,1.259904,0.750424,0.974410,0.494970,0.421002,0.473803,0.575790,0.607720,0.362763,1.089803,0.148189,0.308086,0.158414,-0.057941,0.688567,1.527413,1.804452,1.337463,1.402336
0.521760,0.229808,0.407424,0.411242,0.360755,-0.078284,0.718989,0.283717,0.382962,0.253996,-0.149048,0.163052,1.315046,1.367774,0.852530,1.121607,0.519451,0.430711,0.481215,0.571015,0.618157,0.346273,1.132333,0.137081,0.301518,0.185192,-0.055429,0.747035,1.594585,1.864148,1.376662,1.464215
0.500699,0.245974,0.445310,0.457327,0.403613,-0.052305,0.732781,0.364082,0.446329,0.286072,-0.134272,0.196747,1.501592,1.500700,0.989287,1.226357,0.536796,0.466351,0.528704,0.622797,0.678227,0.374741,1.185416,0.164888,0.415425,0.234113,-0.048980,0.856503,2.069701,2.202458,1.481320,1.492622
0.527689,0.269656,0.472017,0.511497,0.456945,-0.043109,0.624417,0.335527,0.438740,0.199301,-0.154522,0.158828,1.363878,1.453441,1.069310,1.558188,0.596998,0.561118,0.658068,0.726160,0.790067,0.470485,1.190283,0.208871,0.426722,0.265098,-0.051678,0.766156,1.546975,1.813451,1.453562,1.808284
0.612658,0.283482,0.469487,0.485221,0.393011,-0.046221,0.855318,0.317733,0.425510,0.266243,-0.132959,0.178442,1.362156,1.378856,0.959714,1.486113,0.568254,0.483208,0.524569,0.647297,0.688309,0.429380,1.182989,0.182540,0.409716,0.237115,-0.054172,0.749629,1.512449,1.749054,1.280993,1.443085
0.777744,0.351885,0.602273,0.571731,0.540240,-0.037895,0.192202,0.436895,0.689978,0.509971,-0.077798,0.259296,1.544255,1.479100,0.989915,1.424355,0.710041,0.587926,0.627006,0.698078,0.765744,0.495986,1.216384,0.249968,0.416121,0.339694,-0.035760,0.896376,1.590117,1.813992,1.391688,1.692585
0.802550,0.404120,0.592615,0.548444,0.484106,-0.041590,0.102225,0.383224,0.568663,0.411115,-0.129091,0.187259,1.359671,1.383648,0.908656,1.371145,0.723865,0.579600,0.629189,0.691392,0.750980,0.449107,1.040252,0.198150,0.470779,0.307110,-0.041681,0.875081,1.603610,1.782535,1.325066,1.567727
0.749031,0.446318,0.663105,0.698576,0.620006,-0.002835,0.135995,0.507722,0.661873,0.468199,-0.117950,0.194019,1.393183,1.434742,0.960696,1.736843,0.771997,0.750873,0.776571,0.866552,0.895328,0.610079,1.014673,0.365070,0.548696,0.465250,-0.031951,0.907986,1.582413,1.804086,1.443308,1.892702
0.973104,0.512192,0.805318,0.784615,0.684987,0.024442,0.094178,0.601799,0.839242,0.617581,-0.073076,0.271192,1.547241,1.647445,1.065178,1.376741,0.858639,0.734085,0.785571,0.876325,0.925375,0.593729,1.404940,0.409280,0.600582,0.535934,-0.022657,1.052689,1.668663,1.815926,1.329678,1.608919
0.611357,0.305853,0.517357,0.506862,0.416847,-0.041832,0.083341,0.366170,0.616946,0.439371,-0.100014,0.206423,1.399570,1.398899,0.926002,1.463749,0.590755,0.511067,0.545682,0.649020,0.759903,0.436755,0.981380,0.234202,0.368271,0.271826,-0.027052,0.995226,1.589488,1.788138,1.284492,1.548539
0.539402,0.293762,0.444007,0.450033,0.419685,-0.068984,0.076926,0.320800,0.562180,0.444210,-0.102486,0.227564,1.756448,1.880111,1.310725,1.705991,0.519395,0.452305,0.542325,0.652746,0.688805,0.415772,0.709022,0.364482,0.472425,0.368641,-0.033249,0.998074,1.895234,2.661312,1.645226,1.600095
0.565339,0.294260,0.456728,0.440327,0.374109,-0.061442,0.037822,0.322461,0.516951,0.349771,-0.138119,0.163066,1.167727,1.157020,0.763589,1.250151,0.550213,0.441983,0.485536,0.579667,0.665174,0.382386,0.680917,0.180226,0.356139,0.385204,-0.038517,0.954835,1.545632,1.610031,1.212798,1.512118
0.595146,0.303126,0.476724,0.489242,0.406474,-0.066193,0.045166,0.375460,0.557192,0.406903,-0.133687,0.210052,1.389739,1.441024,0.966503,1.383106,0.582186,0.468707,0.505883,0.611035,0.682689,0.426856,0.999600,0.187995,0.417642,0.399392,-0.034039,0.945196,1.426004,1.563798,1.222682,1.514071
0.654391,0.352616,0.488136,0.520151,0.454549,-0.047535,0.061136,0.418608,0.620472,0.450270,-0.054039,0.190931,1.279466,1.333152,0.868151,1.489356,0.621615,0.522338,0.580316,0.676318,0.760064,0.512275,0.507873,0.421073,0.519378,0.440481,-0.033304,0.961636,1.516040,1.674542,1.177498,1.412708
0.754394,0.469298,0.642117,0.650490,0.564491,0.032995,0.140600,0.506205,0.812234,0.539579,0.045088,0.243169,1.518736,1.573166,1.074422,1.398086,0.764314,0.679898,0.774854,0.815544,0.968013,0.610400,0.800181,0.328271,0.766043,0.515601,-0.018209,1.157586,1.826504,1.946195,1.335049,1.479975
0.582475,0.346081,0.535593,0.516037,0.443032,-0.024341,0.062725,0.390039,0.585704,0.418750,-0.030578,0.160212,1.219820,1.352667,0.866033,1.389466,0.563690,0.524047,0.598018,0.693471,0.795874,0.517603,0.557252,0.322067,0.530847,0.663825,-0.033222,0.914630,1.346723,1.623919,1.391608,1.676842
0.601539,0.337063,0.581467,0.545102,0.480479,-0.033869,0.077021,0.427967,0.591689,0.432708,-0.010183,0.155775,1.112741,1.207492,0.792319,1.338969,0.589220,0.544185,0.621943,0.765419,0.828479,0.506314,0.608311,0.310549,0.470297,0.602854,-0.034666,0.921965,1.341467,1.573750,1.472639,1.836685
0.726690,0.431261,0.642533,0.600020,0.510724,-0.001828,0.084798,0.467962,0.640787,0.448225,-0.006783,0.172087,1.168378,1.213969,0.792170,1.377372,0.687171,0.616110,0.703266,0.787969,0.875348,0.581586,0.624081,0.367489,0.575000,0.687654,-0.031540,0.971543,1.414798,1.596290,1.336970,1.651280
0.745571,0.458010,0.674347,0.642170,0.558003,-0.003705,0.108485,0.562769,0.732960,0.531003,-0.009645,0.177097,1.159744,1.214036,0.790328,1.354716,0.684889,0.636172,0.736295,0.847693,0.915422,0.663438,0.577391,0.426344,0.548349,0.819200,-0.027181,1.021761,1.424350,1.577694,1.342822,1.626044
0.754474,0.430238,0.662819,0.607141,0.513523,0.004264,0.093430,0.469694,0.677433,0.468625,0.001440,0.187236,1.291884,1.367630,0.928608,1.631960,0.668431,0.609756,0.677297,0.780428,0.910489,0.556009,0.582712,0.352573,0.587348,0.841424,-0.031865,0.957979,1.393749,1.601258,1.366339,1.748031
0.710315,0.393655,0.601794,0.531586,0.461711,0.000293,0.072341,0.430514,0.612121,0.418707,0.016066,0.192681,1.338081,1.526884,0.975319,1.613681,0.619200,0.550562,0.605492,0.720661,0.725987,0.488783,0.575833,0.288715,0.472515,0.813059,-0.033684,1.108388,1.983313,1.987631,1.579601,1.732084
0.697937,0.391515,0.578319,0.539585,0.492606,-0.019763,0.091948,0.405037,0.659425,0.462667,0.011465,0.175638,1.194473,1.286497,0.989279,1.578173,0.684273,0.562137,0.635509,0.716039,0.779054,0.541371,0.566191,0.285914,0.501630,0.800145,-0.036726,0.970062,1.440255,1.606225,1.467972,1.692019
0.839252,0.490575,0.714675,0.618425,0.569712,0.011783,0.117046,0.534191,0.733135,0.594149,0.044001,0.211313,1.205786,1.310191,0.994411,1.678619,0.791159,0.705741,0.760969,0.799169,0.858097,0.544206,0.640386,0.390056,0.584994,0.874840,-0.017803,1.124463,1.500600,1.645985,1.467739,1.954183
0.642818,0.432117,0.635475,0.592512,0.530594,0.022234,0.103922,0.571067,0.671976,0.472907,0.012114,0.158965,1.166498,1.383435,0.912016,1.529336,0.623327,0.601910,0.694463,0.783180,0.751733,0.484026,0.629901,0.409831,0.640295,0.948458,-0.030296,0.994750,1.387158,1.715063,1.393611,1.500131
0.560881,0.302738,0.559206,0.534483,0.469205,-0.001255,0.081107,0.475531,0.631095,0.453615,0.022257,0.171168,1.339324,1.538878,1.002916,1.551330,0.538312,0.525009,0.601268,0.686841,0.695592,0.491300,0.580686,0.338350,0.547940,0.779320,-0.031191,0.987703,1.405911,1.961995,1.520897,1.534840
0.573593,0.336709,0.566783,0.547268,0.448432,-0.005396,0.054956,0.524048,0.623392,0.471725,0.033263,0.213360,1.496585,1.627612,1.104259,1.664157,0.542417,0.541519,0.639065,0.748318,0.715697,0.506506,0.659030,0.385018,0.526219,0.915342,-0.031036,1.103148,1.597350,2.011392,1.605729,1.659671
0.617162,0.340154,0.533499,0.485935,0.413322,-0.002658,0.044226,0.454105,0.576807,0.474159,0.031069,0.200409,1.308216,1.398756,0.945097,1.610518,0.574893,0.517797,0.560159,0.652954,0.639130,0.443648,0.533159,0.349678,0.506227,0.834472,-0.031303,1.134668,1.527476,1.709260,1.481921,1.708564
0.743615,0.432770,0.658209,0.588223,0.504689,0.135402,0.077794,0.560786,0.746723,0.600899,0.052348,0.254073,1.428762,1.516602,1.037825,1.735430,0.702965,0.596051,0.685653,0.771211,0.768757,0.645437,0.565594,0.387451,0.697824,0.984213,-0.019003,1.258348,1.655000,1.798918,1.545934,1.803119
0.604778,0.352528,0.570617,0.543635,0.463641,0.167532,0.051311,0.482996,0.594914,0.478239,0.016644,0.161777,1.249763,1.424440,0.930319,1.648524,0.574495,0.558863,0.616673,0.703787,0.742396,0.470957,0.570413,0.364672,0.580229,0.889636,-0.029681,1.067174,1.455919,1.808424,1.621481,1.801822
0.687282,0.395135,0.621510,0.598787,0.512127,0.301081,0.072187,0.513210,0.681262,0.514641,0.030970,0.174499,1.269385,1.399147,0.971289,1.753094,0.644987,0.628568,0.692358,0.752907,0.774045,0.523938,0.521120,0.428560,0.614691,0.914032,-0.028534,1.036585,1.284641,1.565415,1.350623,1.590792
0.801859,0.534782,0.845060,0.786110,0.706412,0.333730,0.150944,0.740387,0.891964,0.679149,0.072399,0.230433,1.382333,1.392174,0.946301,1.696298,0.818301,0.814171,0.879587,0.962143,0.976843,0.762661,0.655908,0.520862,0.815300,1.005225,-0.013056,1.239944,1.681401,1.741044,1.361722,1.705865
0.887582,0.593331,0.867602,0.858630,0.786580,0.334649,0.186461,0.852856,0.945961,0.736817,0.079249,0.231120,1.409984,1.539104,1.098401,1.955307,1.009664,0.892180,1.026723,1.117473,0.988561,0.857959,0.733140,0.572914,0.893970,1.128661,-0.006042,1.097525,1.363936,1.848481,1.792583,1.948895
0.817016,0.483859,0.772750,0.763346,0.694844,0.344555,0.126703,0.655395,0.803273,0.629780,0.049928,0.261646,1.831532,1.883022,1.047514,1.743380,0.799570,0.800255,0.885294,0.985486,1.005365,0.786214,0.640525,0.505981,0.773400,0.958440,-0.025138,1.076701,1.846083,3.137161,2.224650,2.278974
1.072136,0.583313,0.907913,0.774709,0.704287,0.393120,0.143748,0.708511,0.862038,0.689337,0.079309,0.300720,1.815284,1.831459,1.100592,1.894466,0.964154,0.805275,0.907986,0.978204,0.969594,0.724722,0.737016,0.457972,0.748526,0.903170,-0.016628,1.235860,1.857972,2.212117,1.908147,2.093731
0.840018,0.554665,0.832850,0.777865,0.664747,0.380945,0.118331,0.675388,0.816694,0.624602,0.051207,0.237000,1.634487,1.774007,1.060086,1.697266,0.860533,0.795892,0.880285,0.959510,0.967109,0.775698,0.600343,0.542795,0.787247,0.938470,-0.019207,1.165476,1.613707,2.089163,1.762701,1.892885
0.802650,0.465561,0.748764,0.739523,0.648613,0.401179,0.112501,0.644464,0.809451,0.633842,0.053962,0.232201,1.552218,1.701743,1.038800,1.714030,0.786188,0.756661,0.837751,0.909511,0.922227,0.723231,0.893389,0.465376,0.696584,0.918001,-0.020331,1.128883,1.524101,2.065449,1.801935,2.009802
0.742163,0.422452,0.701313,0.686455,0.634368,0.394841,0.112036,0.617172,0.789908,0.630836,0.033865,0.224057,1.552032,1.705555,1.026182,1.622618,0.746621,0.723461,0.814104,0.879010,0.848213,0.764653,0.388201,0.489060,0.771886,0.941040,-0.020437,1.126616,1.536584,2.061679,1.750901,1.830532
0.753559,0.421277,0.717930,0.703984,0.669619,0.395779,0.133194,0.685728,0.894071,0.696156,0.116974,0.250233,1.612862,1.768165,1.100287,1.683352,0.771301,0.744963,0.850005,0.906426,0.911778,0.798811,0.418504,0.551492,0.845354,0.844989,-0.013076,1.134800,1.515586,2.045936,1.743949,1.804157
0.761214,0.442436,0.719288,0.698693,0.615886,0.411576,0.110181,0.627587,0.840938,0.704121,0.029909,0.263962,1.658877,1.754856,1.079771,1.654535,0.740309,0.719667,0.821648,0.874615,0.846653,0.738662,0.418791,0.457728,0.833900,1.181775,-0.015745,1.253493,1.661473,2.070362,1.807688,1.904645
0.778539,0.466167,0.744044,0.726622,0.625349,0.435249,0.113800,0.601823,0.824574,0.625645,0.032854,0.244152,1.714576,1.892448,1.168876,1.823332,0.770477,0.747069,0.852368,0.905315,0.896054,0.738795,0.436820,0.528568,0.801940,0.855982,-0.024130,1.059551,1.490176,1.999918,1.743838,1.837787
0.785059,0.428978,0.690173,0.674094,0.609415,0.406379,0.107992,0.635196,0.789777,0.625776,0.036611,0.273391,1.791487,1.985300,1.381975,1.732130,0.738210,0.701617,0.802757,0.853018,0.836298,0.716589,0.385336,0.539215,0.745350,0.808661,-0.022189,1.091583,1.523532,2.002693,1.788720,1.926568
0.847435,0.526059,0.760829,0.716908,0.651892,0.488366,0.127033,0.677206,0.861048,0.671160,-0.066732,0.254394,1.662935,1.965333,1.672852,2.100637,0.815760,0.749869,0.841094,0.881634,0.844041,0.719059,0.383222,0.472000,0.872250,0.742558,-0.017065,1.226026,1.658416,1.954241,1.733650,1.928261
0.828101,0.479403,0.782756,0.819064,0.735728,0.440702,0.144236,0.781389,0.917147,0.802286,-0.047169,0.280831,1.782986,1.961736,1.246511,2.104514,0.841934,0.814575,0.942334,1.018791,0.932646,0.848873,0.439862,0.616988,0.883786,0.679759,-0.000993,1.388876,1.762834,2.330677,2.041617,2.261737
0.838435,0.484188,0.751649,0.759887,0.672412,0.392826,0.121147,0.694182,0.836994,0.677738,-0.067457,0.263075,1.830895,2.129616,1.377515,1.877486,0.840174,0.766825,0.890776,0.936466,0.893937,0.795414,0.394946,0.459749,0.755880,0.545015,-0.013546,1.246453,1.768715,2.219911,1.648903,1.744353
0.781708,0.424751,0.677635,0.669359,0.604187,0.412947,0.095379,0.621226,0.765283,0.611228,-0.077192,0.259026,1.840420,1.969865,1.248662,1.725431,0.762544,0.697947,0.798651,0.862526,0.802615,0.735092,0.381334,0.395207,0.721862,0.527883,-0.019682,1.153377,1.677874,2.327712,1.715783,1.733809
0.684523,0.352353,0.624848,0.636990,0.591292,0.431141,0.097076,0.604784,0.747453,0.579447,-0.072495,0.277866,1.879088,2.121137,1.392194,1.759420,0.736141,0.668396,0.765416,0.854033,0.790923,0.689935,0.376875,0.363183,0.716278,0.518821,-0.020928,1.127090,1.658587,2.284214,1.721681,1.737113
0.849793,0.452452,0.751180,0.741230,0.686338,0.435273,0.135208,0.832130,0.960116,0.803681,-0.022280,0.391262,2.409205,2.424786,1.534295,1.927809,0.823178,0.747926,0.879436,0.959775,0.909911,1.079636,0.370868,0.420154,0.725999,0.552089,-0.012645,1.257364,1.821840,2.371260,1.798886,1.823401
0.793524,0.438770,0.715684,0.695068,0.638767,0.419587,0.094155,0.688979,0.860634,0.736996,-0.038503,0.358779,2.236775,2.277861,1.395716,1.714923,0.789185,0.711341,0.794446,0.863979,0.767962,0.753947,0.334203,0.448196,0.769904,0.556745,-0.013381,1.256840,1.865864,2.449001,1.824823,1.818827
0.681692,0.352448,0.614547,0.636693,0.591819,0.411555,4.000000,0.623453,0.785862,0.601387,-0.070398,0.295965,2.049054,2.098326,1.287023,1.538513,0.702562,0.661680,0.758396,0.841703,0.776550,0.890377,0.339981,0.374278,0.654655,0.484060,-0.020548,1.173107,1.875375,2.537062,1.712556,1.698421
0.871518,0.568187,0.817992,0.830604,0.769420,0.420342,4.000000,0.900489,0.926649,0.807880,-0.010349,0.347524,2.110191,2.213537,1.375872,1.570832,0.890097,0.831552,1.021315,1.081782,1.026881,0.988213,0.538263,0.536737,0.838635,0.620203,-0.004265,1.300743,1.745177,2.269637,1.679877,1.842405
0.719492,0.379382,0.652652,0.681719,0.623140,0.463156,4.000000,0.670332,0.750186,0.492612,-0.089602,0.274689,1.991253,2.165568,1.336507,1.770549,0.750144,0.710756,0.818128,0.894079,0.846938,1.594212,0.345953,0.306509,0.600701,0.419349,-0.032190,0.964365,1.615784,2.416448,1.778327,1.764721
1.080859,0.734331,1.112988,1.115182,1.067950,0.532035,4.000000,1.007412,1.169759,0.782458,-0.057210,0.307418,2.111313,2.481342,1.514836,1.603605,1.144643,1.100285,1.307049,1.414105,1.392798,1.238166,0.747963,0.627937,1.127914,0.725480,-0.000067,1.258746,1.736324,2.430776,1.743428,1.769899
1.033367,0.599179,0.941436,0.908313,0.839242,0.421285,4.000000,0.906698,1.092680,0.870834,-0.029315,0.362150,2.154436,2.225014,1.495709,1.813661,1.005185,0.896251,1.037244,1.129823,1.059608,1.397337,0.565850,0.517211,0.916538,0.651896,-0.002162,1.354962,1.788914,2.284239,1.731979,1.853328
0.957337,0.528161,0.845298,0.832584,0.788480,0.290246,4.000000,0.806342,0.937199,0.711703,-0.046406,0.345062,2.221319,2.421863,1.484220,1.844762,0.965892,0.855059,0.989153,1.089147,0.979364,1.571253,0.570102,0.425284,0.861570,0.611260,-0.010650,1.233392,1.764540,2.289645,1.746875,1.920616
0.890493,0.486184,0.791643,0.791765,0.746883,0.447505,4.000000,0.773271,0.889804,0.671782,-0.050790,0.332177,2.133166,2.310200,1.452232,1.814985,0.874779,0.780055,0.934308,1.037412,0.942509,1.656183,0.546994,0.430979,0.785920,0.549131,-0.018276,1.121883,1.698309,2.251821,1.697757,2.003500
0.867108,0.457907,0.758579,0.752756,0.695402,0.182816,4.000000,0.729674,0.875380,0.663448,-0.053090,0.328252,2.133888,2.320653,1.418996,1.733971,0.847152,0.745549,0.881660,0.978621,0.865671,1.634436,0.551786,0.394365,0.734145,0.536667,-0.018093,1.146238,1.710801,2.269313,1.751799,1.867848
0.888323,0.478638,0.802857,0.800905,0.733454,0.109538,4.000000,0.776557,0.897012,0.696206,-0.047264,0.323423,2.120484,2.297120,1.401490,1.795660,0.902111,0.782654,0.933294,1.037196,0.921540,1.843938,0.653593,0.600722,0.794986,0.587054,-0.011113,1.198595,1.726572,2.287242,1.731061,1.834183
0.817254,0.442039,0.729930,0.758171,0.724903,0.085192,4.000000,0.830321,0.861102,0.646440,-0.057770,0.305060,2.062897,2.252073,1.371038,1.786123,0.829923,0.741228,0.884062,1.002522,0.865721,1.755266,0.549861,0.419370,0.739250,0.568558,-0.012055,1.151529,1.632348,2.204640,1.701607,1.937240
0.721336,0.407318,0.687355,0.753198,0.737107,0.143761,4.000000,0.737149,0.840641,0.629792,-0.072395,0.310783,2.445430,2.812772,1.673922,2.223698,0.825310,0.741873,0.913795,1.023447,0.868861,1.696539,1.206240,0.525912,0.933785,0.605457,-0.009763,1.189334,1.783852,3.020236,2.132360,2.051289
0.720901,0.332867,0.617963,0.611315,0.555488,0.083752,4.000000,0.666831,0.716910,0.563474,-0.072938,0.313668,2.234450,2.458945,1.438616,1.652069,0.680265,0.605631,0.732600,0.843514,0.710869,1.610318,0.764589,0.352331,0.639414,0.442101,-0.023646,1.144181,1.917902,2.559884,2.015867,1.717009
0.856223,0.522149,0.831563,0.914549,0.790743,0.134622,4.000000,0.833595,0.923840,0.769930,-0.048088,0.369378,2.603548,2.770364,1.524460,1.734170,0.921477,0.920085,1.080174,1.186638,1.110198,1.697033,1.447437,0.591201,1.006601,0.602893,-0.011319,1.234488,1.828466,2.770820,1.805155,1.594214
1.045854,0.551797,0.855693,0.874596,0.766252,0.142242,4.000000,0.884263,0.856079,0.742994,-0.058398,0.316849,2.100978,2.322656,1.403474,1.807005,1.038591,0.863754,0.956287,1.047858,0.925444,1.834628,1.142473,0.415822,0.834467,0.551482,-0.019251,1.146494,1.712410,2.274190,1.652402,1.824761
0.716040,0.340261,0.602429,0.628959,0.584592,0.106059,4.000000,0.790069,0.696354,0.522412,-0.092345,0.267004,1.978891,2.208422,1.348621,1.788100,0.700617,0.623351,0.764478,0.885019,0.784015,1.685305,1.080183,0.331945,0.671374,0.429514,-0.028543,0.983373,1.547670,2.117404,1.450685,1.752378
0.760159,0.379113,0.641783,0.673920,0.616577,0.120403,4.000000,0.711531,0.712000,0.576238,-0.078829,0.289978,2.036060,2.306063,1.414704,1.751525,0.758797,0.682917,0.807599,0.910175,0.788630,1.689324,1.123331,0.402724,0.769470,0.506004,-0.021727,1.096288,1.605156,2.157123,1.460496,1.545758
0.852651,0.458132,0.744724,0.791795,0.704780,0.133301,4.000000,0.824962,0.848351,0.697303,-0.052145,0.343287,2.261933,2.496019,1.454755,1.777762,0.887221,0.790034,0.910134,1.040488,0.901636,1.730457,1.200580,0.505693,0.924568,0.583026,-0.010074,1.264338,1.754741,2.277582,1.612279,1.578642
0.833485,0.467998,0.758233,0.795696,0.703663,0.140717,4.000000,0.949413,0.833247,0.658978,-0.055334,0.333966,2.236794,2.471717,1.461542,1.870160,0.885508,0.792011,0.912681,1.041223,0.898487,1.755471,1.168714,0.475455,0.920301,0.571219,-0.011142,1.260379,1.813446,2.282224,1.584308,1.625884
0.790701,0.423755,0.719854,0.761823,0.703807,0.134796,4.000000,0.910048,0.807857,0.646153,-0.064370,0.330970,2.302714,2.491956,1.516995,2.027183,0.832924,0.764912,0.911898,1.037630,0.902707,1.761060,1.167026,0.465480,0.912778,0.561368,-0.014903,1.179417,1.785576,2.282630,1.618001,1.807295
0.860106,0.477157,0.797844,0.815522,0.761731,0.161128,4.000000,0.973131,0.830938,0.695703,-0.049146,0.342595,2.303236,2.573180,1.568202,1.971837,0.890491,0.832220,0.957297,1.086463,0.952353,1.740858,1.224757,0.522743,0.970046,0.617122,-0.010053,1.237544,1.818467,2.454724,1.748277,1.933071
0.833985,0.528003,0.898972,0.918704,0.913490,0.181489,4.000000,1.102278,0.969827,0.791559,-0.051389,0.352513,2.385519,2.647738,1.473159,2.139203,0.998273,0.991907,1.178356,1.317741,1.225635,1.988768,1.307276,0.719550,1.156430,0.723140,-0.002648,1.295395,2.001222,2.775219,1.973422,1.889995
0.763366,0.408965,0.699926,0.777372,0.720992,0.141756,4.000000,0.925091,0.802265,0.645314,-0.073069,0.320145,2.377328,2.841932,1.588108,2.251133,0.829222,0.776705,0.952353,1.090289,0.994964,1.717448,1.208078,0.482883,0.916685,0.580667,-0.008449,1.341048,1.872374,2.794474,1.925653,1.817448
0.946619,0.535336,0.837470,0.834987,0.734405,0.123715,4.000000,1.120553,0.799975,0.709687,-0.050065,0.345423,2.271714,2.448266,1.379594,1.911555,1.052302,0.880910,1.002111,1.082666,0.923491,1.835986,1.138184,0.550217,0.863730,0.576906,-0.011724,1.368183,1.973753,2.361075,1.874004,1.933490
0.945945,0.531603,0.864187,0.838558,0.786125,0.137119,4.000000,1.622692,0.859227,0.653710,-0.058851,0.344618,2.297024,2.530378,1.466342,2.103240,0.985157,0.873750,1.003332,1.152793,1.027310,1.906959,1.152336,0.534336,0.910482,0.570932,-0.016657,1.169619,1.745136,2.202383,1.708717,1.819099
0.851102,0.434697,0.718153,0.717388,0.644775,0.122027,4.000000,1.788785,0.709600,0.604383,-0.073997,0.333082,2.279249,2.502082,1.419974,1.960161,0.835883,0.731944,0.845006,0.953898,0.842116,1.590414,1.106034,0.413630,0.822158,0.455849,-0.026484,1.100683,1.779047,2.291224,1.813261,1.843803
0.944438,0.546615,0.845052,0.869775,0.774096,0.156876,4.000000,2.067515,0.718250,0.656954,-0.052863,0.361332,2.436198,2.621332,1.502394,2.019673,0.949875,0.847445,1.015812,1.094882,1.035053,1.665867,1.151423,0.465319,0.942759,0.487804,-0.025270,1.096256,1.762709,2.227416,1.677369,1.812433
0.868577,0.463010,0.749170,0.765656,0.686701,0.127877,4.000000,2.036787,0.686827,0.578589,-0.096721,0.281797,2.070779,2.323568,1.282865,1.881573,0.847776,0.757948,0.877835,0.995246,0.883264,1.445503,1.114831,0.428774,0.878753,0.469105,-0.027829,1.092577,1.766083,2.244300,1.677295,1.780782
0.958120,0.525304,0.806412,0.842354,0.766340,0.171588,4.000000,2.310181,0.690902,0.556310,-0.045229,0.318561,2.405114,2.741513,1.762205,3.007694,0.985721,0.910551,1.087327,1.177479,1.141340,1.265088,1.355828,0.585826,1.109593,0.591439,-0.017365,1.091600,1.976091,2.946850,1.854143,1.879726
0.930799,0.518569,0.806489,0.811335,0.734150,0.126079,4.000000,2.328185,0.752525,0.646312,-0.036535,0.385216,2.589034,2.738414,1.603923,2.561639,0.903308,0.807568,0.947552,1.041602,0.916079,1.316007,1.255310,0.467854,0.976625,0.526004,-0.017208,1.251005,2.049261,2.515611,1.826090,2.021198
0.814447,0.445765,0.748743,0.779035,0.706526,0.155952,4.000000,2.410466,0.694463,0.584972,-0.040537,0.342104,2.470153,2.750369,1.540471,2.376726,0.837539,0.792637,0.921552,1.045740,0.939071,1.847710,1.394127,0.457348,0.938062,0.510722,-0.023220,1.195143,2.045804,2.583558,1.785942,1.940877
0.949489,0.567320,0.904979,0.922297,0.838226,0.106197,3.102229,2.416773,0.847318,0.683944,-0.056447,0.372670,2.644134,2.798090,1.498393,2.345815,0.976307,0.943807,1.066247,1.239607,1.128736,0.737240,1.356629,0.571514,1.169155,0.640983,-0.015810,1.225537,2.405118,2.898644,2.113186,2.188972
0.766263,0.433589,0.683795,0.742501,0.671811,0.207455,1.276254,2.478508,0.687494,0.593551,-0.037749,0.356099,2.483010,2.714348,1.616972,2.549863,0.781090,0.782211,0.903504,0.996597,0.909388,0.714633,1.417642,0.411704,1.037468,0.488256,-0.023811,1.205841,2.124339,2.535910,1.818156,1.904437
0.735463,0.369929,0.614208,0.659016,0.601134,0.001944,0.603731,2.357099,0.657776,0.626832,-0.025492,0.412749,2.674678,2.914795,1.720503,2.404933,0.704379,0.660280,0.773894,0.881058,0.796261,0.658941,1.213871,0.375576,0.851601,0.441197,-0.026118,1.125725,2.001117,2.529308,1.847361,1.795788
0.869768,0.454165,0.728030,0.795982,0.721667,0.020635,1.069553,2.644189,0.820926,0.756720,-0.053484,0.364082,2.440391,2.547884,1.369785,2.173393,0.875658,0.792849,0.911225,0.997312,0.914047,0.728284,1.243934,0.578903,1.162023,0.568463,-0.013478,1.248914,2.007199,2.515412,1.832646,1.811699
1.024817,0.588015,0.923137,0.916805,0.798862,0.034976,1.055033,2.607288,0.925250,0.752318,-0.011587,0.353983,2.389504,2.554970,1.441012,2.381065,1.016038,0.945036,1.063233,1.129052,1.108881,0.856358,1.452360,0.545707,1.116227,0.579726,-0.015190,1.158727,1.965582,2.497014,1.784776,1.808719
1.132773,0.740209,1.060921,1.167857,1.029454,0.073280,0.968422,2.701929,1.175781,0.843640,-0.014022,0.359761,2.433901,2.557340,1.418722,2.326871,1.104364,1.181759,1.336876,1.465899,1.414120,1.130475,1.331783,0.679815,1.437675,2.347260,0.005616,1.283705,2.006197,3.109690,2.190913,1.843691
0.693093,0.369074,0.607883,0.689955,0.631218,-0.018108,0.717834,2.834574,0.662482,0.522936,-0.065529,0.320779,2.425597,2.573374,1.444225,2.364576,0.680037,0.667834,0.799753,0.912319,0.821598,0.626553,1.287218,0.358492,0.937924,1.470475,-0.027723,1.037941,1.998679,2.716478,1.937332,1.824525
0.757818,0.432279,0.698795,0.758567,0.663530,-0.019882,0.605221,2.701434,0.687463,0.526145,-0.055014,0.315972,2.400512,2.617030,1.451203,2.396538,0.815178,0.754416,0.903517,0.989787,0.912466,0.749687,1.314183,0.391466,0.975239,1.583318,-0.029024,1.020010,1.985825,2.751080,1.987862,2.041804
0.820089,0.523451,0.855206,0.904176,0.839485,0.026748,0.387245,3.056324,0.848375,0.647334,-0.056279,0.347358,2.769502,3.149992,1.683980,2.546174,0.901116,0.940968,1.110731,1.237150,1.124912,0.891045,1.146596,0.489936,1.107673,1.798303,-0.014536,0.996085,2.012374,3.224499,2.299107,2.046407
0.739083,0.416541,0.700692,0.756127,0.695310,-0.004537,0.257044,3.005682,0.751678,0.577647,-0.043458,0.303983,2.280535,2.404932,1.363701,2.266341,0.759154,0.745612,0.893559,1.004687,0.927817,0.714038,1.095088,0.391160,1.009729,1.823932,-0.021249,1.020164,1.870514,2.573446,1.913804,2.094284
0.874210,0.553222,0.884844,0.946896,0.880922,0.028460,0.339694,2.763744,0.884517,0.705318,-0.032482,0.336331,2.388140,2.554280,1.520900,2.418511,0.903163,0.970369,1.149413,1.234180,1.076142,0.934782,1.032004,0.600520,1.096786,2.181606,-0.007413,1.277206,2.117228,2.900216,2.200131,2.359840
0.819891,0.454606,0.739795,0.767335,0.714333,-0.003454,0.185610,2.836733,0.788034,0.616047,-0.039721,0.324411,2.313095,2.449637,1.472572,2.816748,0.795462,0.735713,0.902217,1.007429,0.943249,0.736261,0.933402,0.387156,0.970010,2.116167,-0.021289,1.085588,1.892783,2.612951,2.192819,2.477622
1.302617,0.816472,1.136158,1.168176,1.112350,0.113207,0.311959,3.067802,1.241435,1.065154,0.058105,0.445429,2.521424,2.532534,1.405848,2.330559,1.250179,1.143523,1.296016,1.439271,1.292785,1.123863,1.109009,0.719761,1.328148,2.468963,0.015973,1.692973,2.715650,3.046094,2.262770,2.260692
1.008724,0.639726,1.009476,1.005990,0.920662,0.052307,0.238874,2.735201,1.073707,0.916137,0.002343,0.387304,2.429609,2.564879,1.395641,2.342542,1.006381,0.960301,1.123444,1.244951,1.148618,0.926022,1.075584,0.600274,1.139007,2.205953,-0.000703,1.422995,2.422326,2.960096,2.288801,2.225803
1.539455,0.989672,1.489826,1.336294,1.220024,0.116021,0.250746,2.856211,1.401445,1.228780,0.063100,0.497227,2.863904,2.885981,1.542513,2.395833,1.403033,1.319896,1.504681,1.662696,1.569818,1.273336,1.244713,0.847315,1.374489,2.141935,0.010861,1.586109,2.580386,3.040150,2.342184,2.372782
1.124495,0.670651,1.085149,1.012520,0.953666,0.066945,0.442592,2.707042,1.109783,0.921380,0.002069,0.355882,2.336219,2.478133,1.367718,2.394557,1.159555,1.058615,1.207911,1.275864,1.248384,0.971700,1.037674,0.638858,1.221607,2.384442,-0.000842,1.326601,2.233259,2.867324,2.198477,2.350698
1.073521,0.619426,0.970109,0.952560,0.889545,0.051352,0.353512,2.544697,1.029459,0.903073,0.017182,0.410265,2.597603,2.790877,1.600566,2.610495,1.018867,0.945004,1.109528,1.212028,1.171739,0.924602,1.052765,0.622575,1.143078,2.312742,-0.003766,1.416944,2.499481,3.717938,2.635246,2.582905
1.089397,0.669271,1.045696,1.034208,0.965133,0.077923,0.396829,2.829044,1.112263,0.954406,0.023067,0.404116,2.456377,2.552357,1.435716,2.371906,1.063303,1.032595,1.205008,1.297918,1.317005,0.993885,1.547218,0.665915,1.216614,2.370795,0.000822,1.401384,2.395486,3.026341,2.346071,2.428629
1.032187,0.623749,0.997954,0.984843,0.930181,0.059842,0.400015,2.774941,1.073689,0.964364,0.022545,0.413967,2.617942,2.923218,1.762823,2.704041,1.003371,0.954540,1.127020,1.247406,1.248734,0.975835,1.364625,0.624692,1.186749,2.353842,-0.001476,1.435638,2.431515,3.034327,2.476573,2.516018
1.102133,0.674971,1.071927,1.036867,0.981198,0.073663,0.500206,1.721238,1.157649,1.013564,0.026744,0.432621,2.613004,2.694173,1.517013,2.447931,1.066728,1.017793,1.204144,1.314230,1.297279,1.048398,1.244379,0.674835,1.278079,2.409554,0.008472,1.494353,2.430307,3.272650,2.418492,2.330750
1.256528,0.784930,1.203516,1.153631,1.040130,0.082872,0.502316,1.621976,1.215704,1.117142,0.046881,0.466233,2.746626,2.751992,1.516482,2.457864,1.237986,1.098334,1.279764,1.346808,1.323056,1.127226,2.368532,0.667226,1.314317,2.374151,0.005149,1.461579,2.432622,3.241244,2.346009,2.317206
1.175226,0.764481,1.203723,1.164306,1.109097,0.106439,0.554863,1.806303,1.236710,1.090842,0.041947,0.432318,2.593749,2.679432,1.519708,2.490809,1.187446,1.139135,1.349798,1.486208,1.474849,1.246567,2.251480,0.782184,1.291040,2.428334,0.007830,1.438345,2.427854,3.348716,2.361610,2.333743
1.237547,0.869521,1.299657,1.306753,1.246795,0.133280,0.593089,1.783309,1.381917,1.146086,0.049291,0.444106,2.609455,2.695444,1.511089,2.470827,1.295825,1.292727,1.521816,1.642501,1.565597,1.276706,2.463600,0.915032,1.420395,2.494932,0.019508,1.621542,2.559744,3.373258,2.453166,2.426692
1.202404,0.771527,1.153553,1.131404,1.070698,0.092345,0.515346,1.921163,1.202722,1.063154,0.027602,0.433938,2.617047,2.656690,1.480842,2.482140,1.163282,1.121103,1.321060,1.440484,1.375779,1.098836,2.483692,0.771941,1.234893,2.458996,0.006334,1.479448,2.487791,3.341683,2.383185,2.364906
1.208308,0.764378,1.156765,1.131119,1.054497,0.091061,0.555195,1.785694,1.246754,1.096627,0.059228,0.467969,2.857403,3.014611,1.589546,2.623339,1.179453,1.119197,1.294056,1.414702,1.344635,1.063339,2.735605,0.733650,1.264700,2.482259,0.010127,1.608087,2.643138,3.438995,2.461850,2.495696
1.266694,0.795878,1.239655,1.220317,1.141390,0.117010,0.545653,1.764920,1.455226,1.275105,0.068537,0.574599,3.308707,3.231077,1.704379,2.530120,1.291006,1.229637,1.440664,1.535003,1.514629,1.293087,2.895868,1.007522,1.348188,2.436682,0.028784,1.821277,2.897295,3.811214,2.488923,2.362072
1.168091,0.760445,1.169545,1.138937,1.054533,0.097835,0.561296,1.725813,1.302380,1.137437,0.036986,0.461735,2.571731,2.929370,1.521545,2.151567,1.189741,1.123567,1.336590,1.435439,1.423823,1.130576,2.740022,0.802074,1.240934,2.447109,0.014254,1.620735,2.494640,3.159912,2.370947,2.379881
1.240175,0.803692,1.187398,1.155155,1.077014,0.100196,0.594153,1.689733,1.392159,1.170658,0.042842,0.509223,3.163339,3.008839,1.592024,2.272515,1.211145,1.104139,1.286262,1.408966,1.356276,1.097270,2.919568,0.777824,1.310330,2.449262,0.018020,1.748870,2.744817,3.440777,2.630896,2.432616
1.131487,0.731700,1.135357,1.094460,1.029728,0.094859,0.584833,1.699629,1.255029,1.071179,0.007358,0.390971,2.495080,2.512373,1.356562,2.159840,1.141629,1.078051,1.281229,1.414876,1.367942,1.065131,2.897303,0.754739,1.231401,2.528137,0.010074,1.487254,2.378908,3.341199,2.515605,2.480737
1.211087,0.777849,1.139955,1.135801,1.056132,0.095864,0.582754,1.745487,1.331618,1.163526,0.039643,0.433504,2.650122,2.649378,1.439506,2.223793,1.199474,1.087556,1.284127,1.407759,1.384080,1.077880,3.001668,0.792475,1.287600,2.542590,0.014709,1.582862,2.300056,3.185015,2.487799,2.437125
1.706111,1.165277,1.574659,1.513115,1.383520,0.179561,0.717392,1.829803,1.686521,1.519833,0.092130,0.503983,2.722849,2.905168,1.667584,2.461438,1.673335,1.490845,1.675874,1.804144,1.794276,1.422509,3.285312,1.101044,1.630909,2.527746,0.039219,1.890363,2.608756,3.532719,2.758070,2.661960
1.452419,0.906965,1.367105,1.279634,1.161757,0.129585,0.597742,1.621753,1.456531,1.264705,0.067071,0.474397,3.038471,2.842054,1.567036,2.349733,1.431003,1.267922,1.465976,1.593305,1.505615,1.276584,3.088642,0.859015,1.435605,2.166110,0.023565,1.717911,2.434622,3.275443,2.570102,2.658824
1.483669,0.948452,1.375898,1.325025,1.204621,0.135277,0.642617,2.070588,1.469786,1.230982,0.039509,0.453082,2.897368,2.755808,1.521813,2.223669,1.476836,1.339367,1.528932,1.630899,1.558650,1.221146,3.064729,0.883384,1.422562,3.100272,0.020241,1.622406,2.360547,3.220119,2.449082,2.400275
1.592890,1.002483,1.454050,1.356039,1.259253,0.146341,0.571518,1.379315,1.611305,1.411019,0.053596,0.465742,2.893945,2.775069,1.558696,2.382044,1.515769,1.321899,1.554235,1.683582,1.596812,1.286133,3.176991,0.973657,1.415356,0.974371,0.028137,1.678764,2.269842,3.240072,2.506198,2.537801
1.502610,0.895289,1.318319,1.225120,1.142323,0.116070,0.579588,1.374585,1.416154,1.235147,0.060699,0.476645,3.155539,2.869256,1.747823,2.686981,1.424435,1.209760,1.401388,1.509584,1.450884,1.212700,3.130519,0.819285,1.310725,0.959509,0.016691,1.615621,2.291553,3.013130,2.434306,2.543977
1.523534,0.898995,1.312730,1.208000,1.123181,0.112870,0.562518,1.354050,1.408516,1.234268,0.049709,0.478245,3.201812,2.943801,1.740776,2.500731,1.427934,1.201733,1.398780,1.494380,1.429481,1.182001,3.120907,0.799706,1.297181,0.913602,0.017598,1.656832,2.472070,3.151019,2.586477,2.622152
1.560554,1.004891,1.538057,1.476607,1.387371,0.185318,0.710087,1.461243,1.691845,1.368497,0.068483,0.481639,3.183917,2.839324,1.641182,2.535170,1.597867,1.492470,1.676759,1.788247,1.820382,1.455857,3.330250,1.097199,1.683690,1.324808,0.040344,1.769769,2.439167,3.245945,2.381290,2.313832
1.714039,1.068361,1.545826,1.445459,1.331857,0.164218,0.588440,1.537916,1.696222,1.533625,0.104356,0.607179,3.219025,3.102194,1.764984,2.586148,1.596869,1.403628,1.599036,1.715574,1.697722,1.363341,3.175989,1.002462,1.598155,1.010057,0.039239,1.866107,2.578471,3.337607,2.512409,2.354903
1.553942,0.976637,1.446643,1.352258,1.273436,0.155367,0.634418,1.505793,1.622072,1.403398,0.091617,0.556084,3.163990,2.845643,1.578620,2.364921,1.480278,1.323711,1.525694,1.651329,1.603220,1.369759,3.240685,0.945152,1.557674,1.036749,0.033892,1.876235,2.564749,3.127395,2.283090,2.164069
1.940577,1.221335,1.799290,1.652746,1.492748,0.211004,0.623688,1.888278,2.003214,1.705069,0.140682,0.655230,3.437579,2.967700,1.677927,2.641854,1.852268,1.624251,1.856832,1.981543,1.876189,1.494684,3.409134,1.122877,1.805006,1.123488,0.054415,2.177145,2.991123,3.517241,2.625988,2.458810
1.906024,1.233794,1.759169,1.686515,1.536832,0.219587,0.486239,1.880154,1.952726,1.657482,0.144474,0.621339,3.294719,2.757773,1.680037,2.598707,1.786714,1.590973,1.811533,2.006703,1.897856,1.669312,3.250267,1.116928,1.751989,1.226925,0.050603,2.083912,2.929032,3.213143,2.340905,2.284619
2.103938,1.223545,1.670602,1.552794,1.391168,0.167068,0.513804,1.477332,1.738383,1.420326,0.092465,0.543195,3.072662,2.706936,1.793284,3.198329,1.842065,1.549543,1.740159,1.805151,1.764764,1.371631,3.390122,0.957589,1.518003,1.042454,0.032993,1.776777,2.369300,3.067412,2.321496,2.480747
1.877234,1.108005,1.608778,1.499204,1.413133,0.176406,0.388568,1.511293,1.795971,1.507420,0.117103,0.623396,3.434112,2.948221,1.839988,2.962118,1.736460,1.513383,1.744653,1.808106,1.778416,1.567256,3.018064,1.022012,1.638280,1.091303,0.041348,1.924317,2.543673,2.996991,2.254707,2.430247
1.848472,1.160435,1.615368,1.556993,1.470074,0.191512,0.412115,1.558151,1.861021,1.545964,0.120503,0.603103,3.347389,3.327348,2.109394,3.203928,1.790841,1.585119,1.751318,1.886292,1.851270,1.542243,2.975948,1.015683,1.717958,1.169374,0.048006,1.964098,2.506919,3.094135,2.299297,2.413716
1.780780,1.066005,1.543433,1.453328,1.351709,0.162290,0.386407,1.487521,1.755402,1.465335,0.104079,0.574267,3.319774,2.955424,1.836212,3.040262,1.607797,1.409905,1.640792,1.770134,1.694986,1.430454,2.898584,0.967592,1.631811,1.127887,0.045320,1.915257,2.431991,2.802738,2.335957,2.421730
1.727144,1.111756,1.691387,1.554355,1.442675,0.190321,0.407290,1.596842,1.800023,1.515803,0.104574,0.561182,3.112953,2.612678,1.680895,2.840351,1.686021,1.550097,1.771259,1.914763,1.844117,1.540910,2.605301,1.068127,1.768312,1.161498,0.049656,1.963856,2.392456,2.574482,1.982660,2.108204
2.123089,1.321540,1.875084,1.722719,1.604715,0.218526,0.467744,1.646218,2.060632,1.739677,0.177253,0.748357,4.000000,3.839902,2.189291,3.431239,1.945604,1.732213,1.919334,2.001264,1.961243,1.775302,3.411241,1.143862,1.881310,1.310041,0.063505,2.191061,2.663943,2.961161,2.274680,2.390297
1.928846,1.213639,1.708274,1.635724,1.520834,0.200234,0.443573,1.666973,1.983317,1.696858,0.170095,0.682134,3.668571,3.274419,1.773401,2.605768,1.828485,1.597574,1.804844,1.913401,1.838223,1.588912,1.386987,1.110355,1.783356,1.269022,0.061601,2.178443,2.723751,2.810845,2.085337,2.158159
2.535332,1.642806,2.355395,2.211438,2.034492,0.326986,0.627634,2.358710,2.615420,2.173730,0.304096,0.914506,4.000000,3.584287,2.172611,3.122772,2.478723,2.158095,2.449207,2.551225,2.406112,1.987718,1.886448,1.572121,2.452039,1.694305,0.101184,2.498239,2.723560,2.826270,2.182559,2.392843
2.070582,1.231835,1.766098,1.649334,1.520379,0.199952,0.418077,1.640959,1.953598,1.655276,0.153139,0.657152,3.521606,3.307974,2.011356,3.393349,2.053043,1.717828,1.890763,1.980238,1.971324,1.800372,1.623758,1.098960,1.778948,1.268739,0.054805,2.006456,2.318947,2.543652,2.087523,2.317634
1.948586,1.254087,1.775802,1.707962,1.579961,0.216643,0.441482,1.693603,1.977602,1.637566,0.150499,0.640346,3.500325,3.226413,1.801892,2.753460,1.901829,1.668182,1.897731,2.054425,1.958390,1.649360,1.490557,1.119090,1.747229,1.266750,0.056768,2.012735,2.338159,2.680531,2.155999,2.342913
2.028951,1.302708,1.860523,1.773399,1.613421,0.225118,0.465518,1.758988,2.066040,1.657992,0.162593,0.680004,3.751283,3.427363,1.848871,2.681072,2.017630,1.780964,1.996480,2.132949,2.091125,1.715149,1.359128,1.196965,1.855744,1.313585,0.058516,2.015313,2.411632,2.737074,2.155257,2.228313
2.163441,1.457792,1.981567,1.971917,1.798464,0.263036,0.513033,1.809373,2.119097,1.736127,0.163397,0.660212,3.333697,3.420314,1.815612,2.665586,2.192394,1.977154,2.163950,2.325032,2.317791,1.906939,1.461558,1.349537,1.951579,1.442324,0.065799,2.084841,2.436730,2.833126,2.251149,2.187456
2.178803,1.506557,2.118751,2.050416,1.814039,0.298355,0.587817,2.091989,2.331944,1.840617,0.201638,0.715436,3.530251,3.304225,1.856967,2.709791,2.253769,2.003011,2.267219,2.424901,2.401508,1.954761,1.441931,1.370775,2.337799,1.513523,0.082660,2.219141,2.548156,2.908643,2.243146,2.209615
1.997747,1.261676,1.776264,1.692815,1.565749,0.206632,0.456061,1.646398,1.932530,1.581942,0.139065,0.642504,3.594990,3.297254,2.033742,2.901460,1.920673,1.680447,1.911732,2.030875,2.010975,1.744255,1.163408,1.089442,1.810780,1.252151,0.055159,1.999519,2.491616,2.974478,2.438884,2.395975
1.974778,1.219173,1.686278,1.613225,1.475567,0.191911,0.420433,1.580627,1.876603,1.509872,0.127356,0.636426,3.435579,3.453478,2.026344,3.111381,1.870125,1.606500,1.800050,1.893655,1.840292,1.552602,1.071893,1.053925,1.814917,1.218105,0.052111,1.904026,2.434960,2.960215,2.065371,2.697534
2.044696,1.282160,1.797685,1.737607,1.588201,0.217972,0.467902,1.687752,1.998529,1.647631,0.157782,0.658431,3.078549,3.132304,1.868741,3.002800,2.003504,1.730328,1.956265,2.046286,2.009666,1.688253,1.217337,1.176845,1.995479,1.366051,0.072200,2.174737,2.434618,2.850662,2.379518,2.634181
2.270300,1.487401,2.038709,1.969524,1.788179,0.270462,0.545374,1.917350,2.227999,1.800611,0.180574,0.667061,3.002090,3.044741,1.822106,3.086733,2.265496,2.000933,2.232812,2.339022,2.320827,1.824103,1.346747,1.377228,2.191354,1.610302,0.086308,2.252893,2.432804,2.749400,2.844457,2.588854
2.315280,1.504866,1.991596,1.883218,1.711188,0.249467,0.808174,1.786149,2.125425,1.714810,0.179709,0.683786,3.129298,3.156700,1.862532,3.175924,2.278882,1.971979,2.147949,2.185939,2.198044,1.858690,1.258396,1.318324,2.088838,1.483987,0.076001,2.182921,2.559463,3.000820,2.603374,2.603482
2.348454,1.512693,2.054614,1.985504,1.797387,0.262914,1.437215,1.870999,2.185109,1.786063,0.179765,0.679069,3.171640,3.271713,2.041190,3.448335,2.273167,1.995935,2.216851,2.303700,2.218532,1.862396,1.370749,1.288822,2.132565,1.481842,0.076124,2.107348,2.471492,2.954747,2.985098,3.171002
2.316833,1.514272,2.038858,1.980813,1.782955,0.276272,1.386673,1.932690,2.223869,1.818395,0.176990,0.658686,2.984720,3.064600,1.871409,3.151974,2.286806,2.016641,2.264845,2.329086,2.282682,2.021321,1.368781,1.362306,2.141158,1.559309,0.081760,2.151421,2.382403,2.779293,3.002482,2.789620
2.234845,1.455433,1.966499,1.928722,1.766922,0.265434,2.084168,1.884809,2.207897,1.799016,0.182122,0.662639,3.078719,3.088755,1.828321,2.994456,2.222714,1.954640,2.159852,2.230612,2.227630,1.915786,1.342142,1.325702,2.079312,1.494580,0.076817,2.133142,2.467984,2.832568,3.134585,2.683526
2.230647,1.436015,1.947361,1.902451,1.717313,0.249765,2.250186,1.847962,2.082685,1.670738,0.156647,0.637909,2.987361,3.079939,1.811926,3.029496,2.191889,1.940426,2.151635,2.237781,2.218165,1.813048,1.287650,1.322854,2.008688,1.431584,0.070551,2.055299,2.394996,2.806631,3.115050,2.678930
