0,1,2,3,4,5,6,7,8,9,10,11,12,13,14,15,16,17,18,19,20,21,22,23,24,25,26,27,28,29,30,31
-0.822411,-0.760222,-0.799250,-0.778652,-0.750658,-0.296879,5.241453,-0.700156,-0.862821,-0.849127,-0.214438,-0.290451,-0.715954,-0.705810,-0.445954,-0.705436,-0.848009,-0.717008,-0.753020,-0.789207,-0.744437,-0.510426,-0.655080,-0.584627,-0.760043,-0.781585,-0.163569,-0.861329,-0.830209,-0.684661,-0.631736,-0.648313
-0.864299,-0.770094,-0.837968,-0.818618,-0.779061,-0.339076,5.367912,-0.803222,-0.871531,-0.891532,-0.226729,-0.306988,-0.716757,-0.709711,-0.455407,-0.696358,-0.968418,-0.835192,-0.862711,-0.799061,-0.855076,-0.716447,-0.695223,-0.677276,-0.771836,-0.809076,-0.162343,-0.839949,-0.830685,-0.685248,-0.628995,-0.660765
-0.831918,-0.752412,-0.816592,-0.811514,-0.765404,-0.337518,5.483582,-0.781262,-0.792659,-0.856040,-0.242239,-0.301490,-0.724964,-0.694926,-0.431844,-0.711134,-0.974202,-0.866553,-0.854734,-0.847750,-0.874308,-0.784859,-0.672637,-0.641360,-0.730750,-0.831055,-0.169946,-0.933611,-0.832226,-0.693577,-0.624120,-0.653571
-0.901422,-0.804640,-0.868922,-0.856655,-0.835117,-0.346670,5.512828,-0.826843,-0.904702,-0.919453,-0.228853,-0.318514,-0.735605,-0.711704,-0.460037,-0.726264,-1.011069,-0.877578,-0.912806,-0.903509,-0.910242,-0.757284,-0.712263,-0.663968,-0.850753,-0.863434,-0.173694,-0.959885,-0.855994,-0.700764,-0.639296,-0.662404
-0.921128,-0.788502,-0.869155,-0.860708,-0.844134,-0.348759,5.521184,-0.827567,-0.922423,-0.933133,-0.250413,-0.319067,-0.732303,-0.700565,-0.474491,-0.741119,-1.007474,-0.896467,-0.918359,-0.894300,-0.942901,-0.812178,-0.724791,-0.699543,-0.817407,-0.873662,-0.173804,-0.947285,-0.859315,-0.694002,-0.643385,-0.671407
-0.906213,-0.833707,-0.857771,-0.860686,-0.814642,-0.333400,5.534984,-0.831175,-0.909079,-0.901833,-0.295041,-0.318689,-0.742548,-0.718964,-0.451459,-0.728170,-1.020845,-0.868656,-0.903140,-0.907003,-0.942895,-0.834972,-0.723055,-0.653437,-0.858424,-0.834608,-0.172941,-0.951822,-0.861280,-0.693756,-0.639680,-0.659319
-0.947728,-0.854518,-0.937562,-0.903183,-0.884337,-0.353278,5.563810,-0.831156,-0.872713,-0.801424,-0.196697,-0.317550,-0.734294,-0.714266,-0.473671,-0.732881,-1.024975,-0.923263,-0.962907,-0.951906,-0.976409,-0.852779,-0.732395,-0.686125,-0.850549,-0.815920,-0.168149,-0.910132,-0.862685,-0.690800,-0.645229,-0.679786
-0.947350,-0.847094,-0.927658,-0.889942,-0.893500,-0.353987,5.575058,-0.841162,-0.946467,-0.927818,-0.413605,-0.320189,-0.748773,-0.719468,-0.472543,-0.745642,-1.024236,-0.893842,-0.918470,-0.932125,-0.931081,-0.821533,-0.698521,-0.692207,-0.893953,-0.867907,-0.172713,-0.963841,-0.873084,-0.694279,-0.650083,-0.668878
-0.963076,-0.848944,-0.946754,-0.894585,-0.907495,-0.356994,5.596545,-0.741973,-0.861695,-0.944789,-0.434906,-0.313286,-0.751016,-0.717524,-0.466070,-0.751190,-1.054776,-0.923183,-0.960809,-0.927217,-0.971710,-0.852509,-0.739344,-0.711665,-0.902766,-0.895256,-0.173066,-0.859060,-0.846938,-0.686604,-0.648648,-0.667228
-0.958195,-0.861142,-0.939656,-0.927187,-0.932301,-0.364976,5.605765,-0.885934,-0.954517,-0.959914,-0.440581,-0.327431,-0.756819,-0.719635,-0.476050,-0.753523,-1.054910,-0.946790,-0.975213,-0.950941,-0.979362,-0.849198,-0.727806,-0.721620,-0.937932,-0.871402,-0.177644,-1.050199,-0.889752,-0.690830,-0.658074,-0.696760
-0.959528,-0.820495,-0.935149,-0.912260,-0.930674,-0.353281,5.498333,-0.852236,-0.958273,-0.944119,-0.438518,-0.324878,-0.747490,-0.722335,-0.477549,-0.746336,-1.015846,-0.928778,-0.970997,-0.896259,-0.925855,-0.783088,-0.732059,-0.714736,-0.942094,-0.869504,-0.176843,-1.056859,-0.897701,-0.692045,-0.656330,-0.697005
-0.984428,-0.863266,-0.989988,-0.944694,-0.946844,-0.369772,5.446861,-0.872335,-0.951309,-0.946023,-0.441901,-0.329318,-0.759728,-0.726824,-0.483263,-0.754883,-1.085985,-0.959264,-0.999593,-0.973872,-0.987408,-0.869324,-0.735430,-0.677135,-0.933025,-0.873041,-0.177983,-1.048315,-0.881992,-0.680598,-0.658528,-0.699086
-0.950145,-0.858072,-0.999381,-0.939203,-0.921332,-0.362556,5.405356,-0.893600,-0.951141,-0.877503,-0.445699,-0.339594,-0.762901,-0.709161,-0.488710,-0.758625,-1.063272,-0.977044,-0.997276,-0.904841,-0.997616,-0.937019,-0.731888,-0.747656,-0.854396,-0.911367,-0.178576,-1.040476,-0.913644,-0.696591,-0.656643,-0.687428
-0.939177,-0.840156,-0.959582,-0.924511,-0.904395,-0.348375,5.342037,-0.743077,-0.769520,-0.878317,-0.448456,-0.338234,-0.756474,-0.722235,-0.481959,-0.756357,-1.049827,-0.916843,-0.964021,-0.933556,-0.992747,-0.855621,-0.588799,-0.490537,-0.771109,-0.824083,-0.178797,-1.073173,-0.905632,-0.696167,-0.643541,-0.684760
-0.945798,-0.853995,-0.885010,-0.857353,-0.803500,-0.346227,4.933946,-0.898464,-0.964971,-0.894734,-0.443440,-0.331658,-0.756563,-0.715988,-0.483392,-0.752806,-1.071674,-0.931107,-0.977085,-0.920665,-0.948290,-0.854900,-0.794218,-0.878454,-0.942721,-0.865858,-0.180167,-1.065890,-0.902425,-0.705764,-0.633923,-0.714135
-0.988308,-0.853831,-0.999069,-0.938268,-0.903127,-0.355772,3.800009,-0.976904,-0.979489,-0.915812,-0.448218,-0.338532,-0.758454,-0.726376,-0.478734,-0.758287,-1.101321,-0.982012,-1.012878,-0.962837,-1.026052,-0.885148,-0.874438,-0.887233,-1.037921,-0.899264,-0.181726,-1.060409,-0.903766,-0.703763,-0.654968,-0.687774
-0.783387,-0.690221,-0.777655,-0.757888,-0.791761,-0.359099,3.954092,-0.882258,-0.809958,-0.736059,-0.417949,-0.306016,-0.692156,-0.670411,-0.434635,-0.695389,-0.976547,-0.828322,-0.782491,-0.840852,-0.899174,-0.817274,-0.795125,-0.810176,-0.948723,-0.782197,-0.169597,-0.978447,-0.855256,-0.685634,-0.598452,-0.658316
-1.036127,-0.878595,-1.039474,-0.968950,-0.961333,-0.371977,3.847318,-0.959319,-1.023700,-0.918453,-0.454355,-0.339835,-0.774514,-0.738061,-0.470518,-0.771140,-1.147491,-1.022204,-1.031541,-1.000052,-1.049077,-0.913484,-0.888216,-0.905808,-1.103365,-0.899466,-0.184051,-1.091962,-0.921292,-0.724057,-0.671177,-0.694775
-1.032627,-0.870193,-1.032623,-0.971838,-0.948592,-0.372050,1.174664,-1.012945,-1.021517,-0.927237,-0.454318,-0.338124,-0.777000,-0.735870,-0.485125,-0.780301,-1.114905,-0.995410,-1.004053,-0.983842,-1.018002,-0.890856,-0.876859,-0.877247,-1.110009,-0.882349,-0.183015,-1.086187,-0.917868,-0.720173,-0.663553,-0.695617
-1.022255,-0.862207,-1.017187,-0.945254,-0.952467,-0.371446,0.024411,-1.028936,-1.028309,-0.932037,-0.449021,-0.328922,-0.780972,-0.737335,-0.477343,-0.769988,-1.085294,-0.955552,-0.958991,-0.969647,-0.989545,-0.865874,-0.844030,-0.851010,-1.058963,-0.877050,-0.182669,-1.077466,-0.917277,-0.721800,-0.675400,-0.683903
-1.010038,-0.866101,-1.017889,-0.944522,-0.953737,-0.368659,0.007287,-1.013980,-1.009570,-0.915888,-0.439748,-0.328093,-0.779849,-0.729729,-0.472740,-0.781743,-1.088507,-0.972880,-0.972380,-0.960907,-0.983194,-0.784276,-0.878752,-0.846897,-1.097036,-0.867511,-0.182618,-1.086760,-0.899048,-0.723150,-0.663942,-0.696465
-1.045046,-0.888739,-1.052762,-0.998051,-0.950133,-0.372283,0.166101,-1.030932,-1.057979,-0.937617,-0.451801,-0.336480,-0.774254,-0.713326,-0.482906,-0.787102,-1.125431,-1.013814,-1.026200,-0.998449,-1.024263,-0.885529,-0.886893,-0.842451,-1.118566,-0.876497,-0.184304,-1.087803,-0.921447,-0.727338,-0.680140,-0.676615
-1.041681,-0.875429,-1.015717,-0.986928,-0.949665,-0.370379,0.153224,-1.049913,-1.061327,-0.901267,-0.441939,-0.313784,-0.634305,-0.659610,-0.479784,-0.750879,-1.073316,-1.008643,-1.019101,-0.999693,-1.030566,-0.886748,-0.884419,-0.890399,-1.147576,-0.877105,-0.180652,-1.055037,-0.873545,-0.689912,-0.659522,-0.689509
-1.062084,-0.899774,-1.066188,-1.006325,-0.974055,-0.378185,0.154013,-1.048271,-1.034252,-0.905986,-0.448218,-0.329983,-0.693915,-0.676316,-0.490341,-0.767441,-1.161926,-1.043734,-1.054407,-1.008642,-1.097792,-0.961655,-0.909272,-0.902923,-1.135531,-0.897256,-0.183677,-1.078028,-0.911861,-0.716449,-0.666083,-0.715673
-1.065352,-0.907749,-1.070150,-1.005638,-0.970741,-0.369629,0.110430,-1.072652,-1.025152,-0.915043,-0.449903,-0.324960,-0.679786,-0.674773,-0.489625,-0.771456,-1.156256,-1.050889,-1.057987,-1.019938,-1.115361,-0.962917,-0.920045,-0.926954,-1.113876,-0.873976,-0.183498,-1.070780,-0.906376,-0.700496,-0.665435,-0.706288
-1.034773,-0.909591,-1.070848,-1.001537,-0.970312,-0.374948,4.518265,-1.078449,-1.056340,-0.922406,-0.444861,-0.275729,-0.677739,-0.666538,-0.453274,-0.770171,-1.135907,-1.051075,-1.049100,-1.032640,-1.125063,-0.926106,-0.907240,-0.915753,-1.161461,-0.898440,-0.182190,-1.080026,-0.899544,-0.712531,-0.655562,-0.720662
-1.046791,-0.891009,-1.061143,-1.008230,-0.981797,-0.385944,2.344104,-1.093240,-1.059412,-0.915892,-0.449106,-0.168019,-0.677399,-0.665530,-0.488840,-0.770601,-1.151723,-1.066293,-1.055436,-1.032183,-1.075098,-0.947941,-0.915550,-0.927430,-1.097568,-0.873452,-0.182947,-1.070025,-0.897459,-0.714285,-0.653172,-0.707921
-1.076475,-0.932049,-1.087545,-1.027675,-0.989619,-0.377921,6.472899,-1.067883,-1.070979,-0.910196,-0.449348,-0.225346,-0.677890,-0.659629,-0.486657,-0.767887,-1.167325,-1.069199,-1.070703,-1.010254,-1.111049,-0.953817,-0.926053,-0.928210,-1.119090,-0.904449,-0.184131,-1.079472,-0.903358,-0.710944,-0.662626,-0.714294
-1.056877,-0.923043,-1.091395,-1.026682,-0.990628,-0.387036,6.874010,-1.069136,-1.055339,-0.921066,-0.448845,-0.219472,-0.671591,-0.661671,-0.495057,-0.759806,-1.156015,-1.066131,-1.050615,-1.053213,-1.113092,-0.960285,-0.924772,-0.928494,-1.080163,-0.909646,-0.184559,-1.077261,-0.903237,-0.714135,-0.655284,-0.707626
-1.066336,-0.933659,-1.063044,-0.989930,-0.966246,-0.373501,7.006004,-1.069366,-0.999330,-0.881173,0.484515,-0.222020,-0.634689,-0.620016,-0.472662,-0.745804,-1.126537,-0.979626,-0.991164,-0.971843,-0.992422,-0.880241,-0.881857,-0.880063,-1.078880,-0.901503,-0.183575,-1.030181,-0.855070,-0.657229,-0.617060,-0.647610
-0.678210,-0.650603,-0.847170,-0.754315,-0.691246,-0.333377,7.273796,-0.799988,-0.717441,-0.615074,0.551213,-0.075377,-0.274175,-0.267067,-0.160745,-0.252453,-0.847631,-0.850107,-0.812355,-0.800131,-0.926254,-0.746816,-0.749947,-0.816922,-0.688859,-0.662788,-0.149444,-0.551767,-0.491939,-0.433854,-0.529609,-0.429531
-0.829017,-0.804885,-0.855945,-0.822419,-0.837776,-0.347646,7.715586,-0.940465,-0.867559,-0.757152,0.460229,-0.171615,-0.404636,-0.370510,-0.256948,-0.403815,-0.974315,-0.832436,-0.862572,-0.838878,-0.917115,-0.753554,-0.817193,-0.809213,-0.968314,-0.811801,-0.165353,-0.789165,-0.631286,-0.568787,-0.520703,-0.519608
-0.926947,-0.835626,-0.979925,-0.900730,-0.896174,-0.367185,8.218473,-1.018198,-0.958615,-0.835898,0.483124,-0.163261,-0.524138,-0.471759,-0.323257,-0.480398,-1.011582,-0.916443,-0.907209,-0.922080,-0.955833,-0.794593,-0.804977,-0.821582,-0.990948,-0.843826,-0.171936,-0.882054,-0.748766,-0.596674,-0.534558,-0.572185
-0.858775,-0.774477,-0.935639,-0.866002,-0.867928,-0.358692,8.379982,-0.981204,-0.927395,-0.744549,0.521299,-0.153220,-0.394554,-0.362993,-0.262917,-0.417178,-0.964459,-0.879214,-0.842595,-0.901339,-0.907528,-0.769552,-0.795637,-0.805138,-0.953491,-0.845963,-0.172418,-0.838644,-0.569414,-0.441610,-0.415186,-0.520381
-0.843198,-0.775147,-0.848296,-0.832470,-0.839073,-0.350039,8.370581,-0.953261,-0.902502,-0.527168,0.551399,-0.127340,-0.308329,-0.285205,-0.171299,-0.344990,-0.964989,-0.848625,-0.844401,-0.825116,-0.837206,-0.753262,-0.775064,-0.794068,-0.961034,-0.827322,-0.171355,-0.799643,-0.415557,-0.241223,-0.299948,-0.382340
-0.803900,-0.730037,-0.841207,-0.794548,-0.761765,-0.341604,8.466238,-0.874474,-0.905620,-0.613034,0.580348,-0.146888,-0.169778,-0.116662,-0.184892,-0.408249,-0.886423,-0.815195,-0.795855,-0.800935,-0.794599,-0.656726,-0.744169,-0.650404,-0.814138,-0.805450,-0.152975,-0.612475,-0.011723,-0.274277,-0.375358,-0.518287
-0.787049,-0.743273,-0.844256,-0.762075,-0.675167,-0.332945,8.547843,-0.833151,-0.749171,-0.520733,0.611447,-0.133880,-0.129915,0.014831,-0.183214,-0.412258,-0.887644,-0.761806,-0.748144,-0.760337,-0.792659,-0.663972,-0.702088,-0.693170,-0.685871,-0.680877,-0.133321,-0.168328,0.404053,-0.022343,-0.339436,-0.464711
-0.790207,-0.721811,-0.763955,-0.704606,-0.676910,-0.324891,8.716232,-0.836586,-0.739885,-0.547602,0.611734,-0.120943,-0.055357,0.125444,-0.143147,-0.392416,-0.845846,-0.736197,-0.715811,-0.696492,-0.690919,-0.653857,-0.683247,-0.652118,-0.629020,-0.551428,-0.133507,-0.116581,0.594603,0.091728,-0.308559,-0.455494
-0.807611,-0.763801,-0.858785,-0.784707,-0.747675,-0.339483,8.768196,-0.868925,-0.820484,-0.557491,0.613903,-0.131629,-0.144291,-0.070236,-0.223363,-0.417143,-0.909754,-0.810995,-0.782649,-0.793659,-0.812559,-0.707011,-0.730726,-0.727609,-0.793196,-0.719405,-0.147690,-0.377498,0.264311,0.004014,-0.318273,-0.430479
-0.803395,-0.774736,-0.846782,-0.767639,-0.726758,-0.336165,8.771216,-0.859242,-0.829297,-0.505538,0.625927,-0.127441,-0.137453,-0.054560,-0.204630,-0.402013,-0.899180,-0.799264,-0.785063,-0.780896,-0.787478,-0.701287,-0.730628,-0.719597,-0.783932,-0.688769,-0.145825,-0.348542,0.269012,0.001363,-0.320273,-0.431379
-0.753478,-0.764785,-0.828400,-0.732952,-0.705433,-0.336056,8.792783,-0.846644,-0.787565,-0.526043,0.634799,-0.127129,-0.131678,-0.049122,-0.197712,-0.396176,-0.872827,-0.747594,-0.727394,-0.751296,-0.735496,-0.655610,-0.698281,-0.683713,-0.781803,-0.657770,-0.144716,-0.322375,0.272666,0.004529,-0.311590,-0.429446
-0.808237,-0.753573,-0.856841,-0.785053,-0.743225,-0.342205,8.801830,-0.839581,-0.821857,-0.524403,0.639942,-0.124343,-0.122051,-0.029463,-0.186433,-0.359229,-0.876115,-0.789149,-0.753710,-0.772669,-0.738092,-0.675208,-0.727436,-0.648547,-0.818058,-0.696652,-0.144994,-0.346565,0.272749,0.005561,-0.310136,-0.353927
-0.626589,-0.563841,-0.656245,-0.645047,-0.638942,-0.322052,8.866298,-0.746805,-0.716810,-0.521677,0.646440,-0.111622,-0.100235,-0.017061,-0.128674,-0.193305,-0.683970,-0.647697,-0.590644,-0.620117,-0.537193,-0.505897,-0.592501,-0.550929,-0.767002,-0.590995,-0.139314,-0.268442,0.313342,0.056023,-0.235233,-0.289303
-0.763916,-0.748418,-0.842979,-0.765844,-0.739689,-0.343302,8.872895,-0.816530,-0.835104,-0.510297,0.639420,-0.121752,-0.101942,-0.002813,-0.130525,-0.227256,-0.841274,-0.773476,-0.755766,-0.759863,-0.754457,-0.682209,-0.707680,-0.668522,-0.750791,-0.665570,-0.142705,-0.309082,0.296196,0.035322,-0.249179,-0.248983
-0.785201,-0.769324,-0.831190,-0.774651,-0.738537,-0.342863,8.880661,-0.835492,-0.842043,-0.505140,0.694746,-0.112682,-0.097636,-0.008635,-0.157715,-0.290552,-0.857272,-0.774196,-0.766674,-0.759663,-0.737849,-0.669927,-0.715534,-0.666499,-0.799470,-0.670675,-0.144412,-0.320826,0.293165,0.030826,-0.272495,-0.336647
-0.780200,-0.757261,-0.806873,-0.756159,-0.719456,-0.336223,8.866586,-0.783344,-0.824156,-0.512470,0.675724,-0.129885,-0.098961,-0.003834,-0.154318,-0.261521,-0.860118,-0.779059,-0.737515,-0.753392,-0.696820,-0.637440,-0.693317,-0.614039,-0.743929,-0.665201,-0.142341,-0.308391,0.301990,0.031777,-0.272241,-0.314323
-0.767211,-0.761176,-0.812113,-0.773387,-0.730320,-0.341656,8.791893,-0.835179,-0.808987,-0.481082,0.668831,-0.128852,-0.087136,0.015416,-0.143747,-0.245315,-0.874500,-0.796283,-0.782726,-0.760669,-0.747708,-0.673446,-0.718300,-0.645802,-0.747024,-0.657706,-0.142896,-0.295098,0.308995,0.050659,-0.225680,-0.225835
-0.730141,-0.735492,-0.787851,-0.722172,-0.691765,-0.336507,8.748979,-0.823728,-0.778348,-0.475193,0.671288,-0.119364,-0.078621,0.013741,-0.144137,-0.232755,-0.847596,-0.776852,-0.761445,-0.719904,-0.715220,-0.659622,-0.705279,-0.649061,-0.764834,-0.610277,-0.141649,-0.274254,0.325382,0.053099,-0.205664,-0.246515
-0.720309,-0.702048,-0.733005,-0.699043,-0.666073,-0.317373,8.698354,-0.729082,-0.795875,-0.481043,0.673607,-0.125046,-0.080399,0.021653,-0.133848,-0.236916,-0.806622,-0.728197,-0.706376,-0.699780,-0.655696,-0.544771,-0.689236,-0.620545,-0.711734,-0.643898,-0.141582,-0.298559,0.308566,0.047204,-0.212168,-0.234911
-0.717682,-0.724692,-0.780789,-0.727116,-0.691943,-0.330258,8.642960,-0.832618,-0.757450,-0.468422,0.676078,-0.127557,0.048721,0.097906,-0.080700,-0.176983,-0.838125,-0.724822,-0.749134,-0.703357,-0.716402,-0.617654,-0.685712,-0.606381,-0.704415,-0.627157,-0.140776,-0.285224,0.316321,0.055563,-0.216668,-0.205861
-0.730902,-0.723330,-0.759449,-0.729059,-0.709908,-0.336031,8.581332,-0.816373,-0.782684,-0.465349,0.668739,-0.104608,-0.023413,0.043593,-0.125592,-0.213173,-0.831953,-0.741512,-0.740190,-0.716499,-0.697890,-0.646705,-0.687568,-0.645526,-0.713224,-0.634706,-0.140922,-0.287907,0.314314,0.048075,-0.221443,-0.215513
-0.706385,-0.730106,-0.774573,-0.719457,-0.695113,-0.330709,7.591307,-0.780288,-0.747484,-0.435456,0.668951,-0.116840,-0.018452,0.059711,-0.103092,-0.210912,-0.828483,-0.743881,-0.724948,-0.691035,-0.691494,-0.614767,-0.694869,-0.645005,-0.686956,-0.643768,-0.140620,-0.287260,0.313984,0.050988,-0.217341,-0.187984
-0.641167,-0.669044,-0.706804,-0.632413,-0.626356,-0.319627,8.316801,-0.749156,-0.660213,-0.434408,0.662106,-0.053938,-0.021003,0.074783,-0.061559,-0.133833,-0.729628,-0.662225,-0.664469,-0.600582,-0.621480,-0.553903,-0.641512,-0.606181,-0.692101,-0.563291,-0.137078,-0.247945,0.324617,0.064090,-0.110661,0.224428
-0.639116,-0.667168,-0.719696,-0.641519,-0.633023,-0.319129,4.962882,-0.745277,-0.707392,-0.436544,0.665968,-0.104449,0.028632,0.105760,-0.056297,-0.047979,-0.733802,-0.661570,-0.654469,-0.573581,-0.610145,-0.565538,-0.628297,-0.577725,-0.625992,-0.597349,-0.138812,-0.238117,0.423189,0.172959,-0.089323,0.044291
-0.597900,-0.602217,-0.655706,-0.504493,-0.534473,-0.292446,0.512921,-0.689782,-0.640701,-0.417352,0.653363,-0.095193,-0.004760,0.092143,-0.046435,0.112168,-0.568784,-0.515292,-0.478882,-0.431602,-0.466792,-0.415256,-0.482074,-0.461723,-0.639281,-0.535404,-0.134410,-0.240914,0.364091,0.133308,-0.081394,-0.024653
-0.585768,-0.645364,-0.663544,-0.577968,-0.578219,-0.304801,0.781265,-0.708997,-0.650366,-0.365162,0.572308,-0.068051,0.008624,0.100267,-0.052503,0.046972,-0.661603,-0.584701,-0.588937,-0.505401,-0.514487,-0.508203,-0.570318,-0.537038,-0.618372,-0.525414,-0.133798,-0.217710,0.365000,0.147272,-0.056214,0.052218
-0.576429,-0.609649,-0.631838,-0.531049,-0.533067,-0.297379,0.721242,-0.689700,-0.628117,-0.412548,0.892313,-0.088434,-0.007611,0.079958,-0.066199,0.027817,-0.622115,-0.545619,-0.533056,-0.459116,-0.488976,-0.487501,-0.530159,-0.511719,-0.612488,-0.490358,-0.132083,-0.221432,0.356885,0.143004,-0.050912,0.047699
-0.509384,-0.574269,-0.608120,-0.502064,-0.470633,-0.278989,0.362155,-0.594032,-0.577352,-0.414434,-0.058345,-0.053955,0.079064,0.152725,0.015447,0.098565,-0.573000,-0.515411,-0.503195,-0.418175,-0.532533,-0.482894,-0.495287,-0.551324,-0.554906,-0.461479,-0.125803,-0.135605,0.405137,0.177821,-0.017284,0.114493
-0.501151,-0.556279,-0.532316,-0.481364,-0.463896,-0.284360,0.282003,-0.660779,-0.553656,-0.362656,-0.049152,-0.039220,0.078229,0.165172,-0.007868,0.112044,-0.591568,-0.542547,-0.528764,-0.426320,-0.490899,-0.526797,-0.546464,-0.528696,-0.613523,-0.443369,-0.127093,-0.177538,0.376620,0.139156,-0.082798,0.020234
-0.613255,-0.631061,-0.692949,-0.574067,-0.544366,-0.306900,-0.075163,-0.692874,-0.656285,-0.396835,-0.182050,-0.028465,0.016793,0.084785,-0.091400,0.052492,-0.610518,-0.582737,-0.568070,-0.515682,-0.595450,-0.524905,-0.570308,-0.550040,-0.631617,-0.524781,-0.133538,-0.264468,0.355128,0.164633,-0.016221,0.144421
-0.650358,-0.655673,-0.709765,-0.602044,-0.565714,-0.306962,-0.165553,-0.702712,-0.689150,-0.364830,-0.203295,-0.054788,-0.016810,0.057880,-0.097077,0.023622,-0.666403,-0.621991,-0.578972,-0.526566,-0.621483,-0.569043,-0.574358,-0.573524,-0.667839,-0.509527,-0.137533,-0.305886,0.322355,0.129446,-0.061328,0.065399
-0.686237,-0.677433,-0.706727,-0.613033,-0.588151,-0.311859,-0.288080,-0.702198,-0.686504,-0.667619,-0.206109,-0.058534,-0.045298,0.034264,-0.106232,0.031492,-0.693301,-0.636910,-0.605423,-0.543809,-0.624065,-0.587056,-0.591205,-0.578716,-0.685867,-0.556613,-0.138083,-0.277629,0.371371,0.139724,-0.075175,0.066017
-0.677882,-0.687782,-0.740469,-0.635839,-0.592914,-0.313870,-0.282282,-0.694359,-0.693529,-0.667474,-0.204631,-0.044799,-0.053906,0.045026,-0.064854,0.040817,-0.688797,-0.642996,-0.634952,-0.554087,-0.651163,-0.603980,-0.594684,-0.596461,-0.684531,-0.554573,-0.139073,-0.306615,0.324761,0.078325,-0.059062,0.029058
-0.657869,-0.643645,-0.703305,-0.566958,-0.529352,-0.301214,-0.344088,-0.644673,-0.608003,-0.614245,-0.183171,-0.038258,-0.011341,0.202171,-0.063049,0.031975,-0.640494,-0.564931,-0.480476,-0.464070,-0.500514,-0.356197,-0.540349,-0.479555,-0.580476,-0.443793,-0.115541,0.072685,0.859664,0.051312,-0.118023,0.017940
-0.681515,-0.701963,-0.775947,-0.663600,-0.632351,-0.324032,-0.335625,-0.720346,-0.727692,-0.694281,-0.209644,-0.047495,-0.317079,-0.269797,-0.144293,0.062143,-0.707151,-0.658778,-0.650208,-0.598875,-0.669909,-0.614020,-0.617450,-0.603042,-0.748128,-0.641049,-0.153580,-0.692455,-0.479391,-0.291774,-0.138086,0.036224
-0.660618,-0.678672,-0.746710,-0.639260,-0.614767,-0.320674,-0.330496,-0.707699,-0.710218,-0.690821,-0.205973,-0.047108,-0.306374,-0.267196,-0.138470,0.076164,-0.678358,-0.640135,-0.615463,-0.572252,-0.664612,-0.600219,-0.603679,-0.599423,-0.798510,-0.638938,-0.155068,-0.706414,-0.474760,-0.260743,-0.065081,0.041471
-0.653254,-0.662903,-0.704631,-0.626899,-0.611152,-0.317932,-0.344037,-0.656367,-0.712277,-0.703267,-0.204504,-0.050777,-0.300904,-0.261403,-0.136054,0.075411,-0.662603,-0.630259,-0.622870,-0.547523,-0.649456,-0.538496,-0.595704,-0.595543,-0.780267,-0.618742,-0.153289,-0.712396,-0.520939,-0.293994,-0.126834,0.073103
-0.604035,-0.652601,-0.660542,-0.597394,-0.572164,-0.307009,-0.346606,-0.629350,-0.667899,-0.662813,-0.198674,-0.028634,-0.174822,-0.163370,-0.071565,0.186511,-0.607864,-0.594729,-0.573232,-0.527185,-0.591911,-0.577701,-0.571122,-0.590388,-0.741183,-0.618722,-0.150968,-0.639089,-0.464558,-0.258373,-0.091788,0.105866
-0.620287,-0.647552,-0.706764,-0.615948,-0.594002,-0.313602,-0.344179,-0.687795,-0.687796,-0.687319,-0.205504,-0.041750,-0.240397,-0.214825,-0.106868,0.118234,-0.638505,-0.606324,-0.599516,-0.530259,-0.619796,-0.588791,-0.579532,-0.594400,-0.758124,-0.610664,-0.152829,-0.686261,-0.493508,-0.265536,-0.080938,0.109338
-0.515246,-0.573400,-0.632470,-0.544425,-0.551038,-0.307781,-0.346613,-0.608638,-0.610363,-0.611017,-0.207399,-0.016769,-0.140493,-0.134422,-0.072919,0.162231,-0.576638,-0.567159,-0.546945,-0.504429,-0.642897,-0.545391,-0.552586,-0.579507,-0.673184,-0.599301,-0.145866,-0.601639,-0.423717,-0.213142,-0.053437,0.160423
-0.472779,-0.558260,-0.657302,-0.510678,-0.461666,-0.289049,-0.340147,-0.598034,-0.621842,-0.547628,-0.216871,-0.021232,-0.103291,-0.124126,-0.046458,0.143291,-0.537447,-0.513196,-0.525087,-0.460874,-0.578421,-0.609343,-0.514354,-0.563643,-0.710834,-0.554692,-0.143950,-0.585753,-0.426981,-0.240539,-0.065793,0.126088
-0.572028,-0.630800,-0.701069,-0.581815,-0.566205,-0.314118,-0.354950,-0.641685,-0.641398,-0.612959,-0.147826,-0.023358,-0.111406,-0.124778,-0.053605,0.087044,-0.615840,-0.587958,-0.590772,-0.513920,-0.627700,-0.608016,-0.571556,-0.597447,-0.758919,-0.597356,-0.148463,-0.572216,-0.327238,-0.118532,-0.001535,0.130547
-0.595180,-0.640962,-0.683240,-0.554823,-0.557262,-0.309353,-0.342016,-0.624864,-0.615792,-0.585322,-0.324025,0.001629,0.377198,0.410902,0.030440,0.095135,-0.603859,-0.575662,-0.576418,-0.518812,-0.642455,-0.614163,-0.561197,-0.580278,-0.689534,-0.559057,-0.130644,-0.154731,0.223024,0.047521,0.034530,0.095530
-0.524511,-0.617877,-0.661115,-0.539935,-0.521167,-0.301605,-0.337614,-0.603552,-0.591627,-0.580189,-0.343354,0.019822,0.537172,0.444084,0.177061,0.210602,-0.565592,-0.550470,-0.541874,-0.484250,-0.599289,-0.563385,-0.523775,-0.563164,-0.714973,-0.545137,-0.136686,-0.296400,0.571636,0.589869,0.320786,0.359914
-0.466326,-0.547181,-0.568403,-0.448020,-0.450902,-0.284712,-0.303936,-0.551822,-0.488813,-0.456962,-0.316417,0.018862,0.162212,0.163046,0.031040,0.132463,-0.478481,-0.470561,-0.468030,-0.405020,-0.469682,-0.448854,-0.479859,-0.506021,-0.503153,-0.482253,-0.121890,-0.088073,0.416961,0.252108,0.122273,0.299673
-0.443872,-0.515474,-0.464012,-0.370100,-0.353817,-0.261050,-0.289785,-0.428883,-0.465037,-0.488920,-0.320078,-0.013860,0.150853,0.192295,0.124938,0.227469,-0.411431,-0.415929,-0.392708,-0.344027,-0.414082,-0.294754,-0.449520,-0.483551,-0.510942,-0.399465,-0.113574,-0.012978,0.446944,0.273127,0.157039,0.394860
-0.397571,-0.456562,-0.469159,-0.373198,-0.363529,-0.263516,-0.264251,-0.497512,-0.457345,-0.458763,-0.318542,0.036884,0.172659,0.202803,0.109863,0.272095,-0.396333,-0.329614,-0.354422,-0.298370,-0.384857,-0.398226,-0.407675,-0.393553,-0.532547,-0.425653,-0.115838,-0.028687,0.451118,0.272272,0.122119,0.378798
-0.424008,-0.517058,-0.519813,-0.444409,-0.431854,-0.285040,-0.307957,-0.518449,-0.472041,-0.470089,-0.333371,-0.034047,0.230210,0.233898,0.155425,0.315103,-0.434107,-0.426239,-0.422130,-0.405165,-0.459591,-0.466603,-0.441296,-0.481373,-0.529923,-0.474719,-0.121740,-0.106622,0.395582,0.261598,0.122593,0.334688
-0.474636,-0.554570,-0.556091,-0.477325,-0.466163,-0.288171,-0.318038,-0.545882,-0.497204,-0.515630,-0.330980,-0.050307,0.160346,0.214033,0.117058,0.283327,-0.490236,-0.489204,-0.452943,-0.414745,-0.484847,-0.487384,-0.482166,-0.523606,-0.563774,-0.486359,-0.127224,-0.168531,0.370079,0.265790,0.157670,0.274642
-0.508171,-0.524176,-0.560976,-0.471568,-0.446326,-0.285756,-0.317668,-0.548035,-0.520801,-0.493147,-0.330293,-0.009832,0.149122,0.203788,0.111460,0.259125,-0.480562,-0.482732,-0.422510,-0.407197,-0.485884,-0.442016,-0.458333,-0.505311,-0.556001,-0.484226,-0.125204,-0.154094,0.374634,0.246310,0.145751,0.324864
-0.519320,-0.565000,-0.587727,-0.496143,-0.459735,-0.284043,-0.319976,-0.553096,-0.545522,-0.533057,-0.325347,-0.109224,0.141150,0.200314,0.112735,0.339793,-0.515748,-0.501583,-0.465781,-0.421197,-0.489481,-0.504059,-0.465302,-0.465323,-0.555492,-0.479987,-0.126657,-0.160307,0.387670,0.236327,0.092507,0.494634
-0.532879,-0.573006,-0.598427,-0.522428,-0.457848,-0.294177,-0.322261,-0.528408,-0.530626,-0.545663,-0.275083,-0.137710,0.181209,0.242618,0.119021,0.164114,-0.541503,-0.536854,-0.468900,-0.453885,-0.533212,-0.510487,-0.506531,-0.479039,-0.548101,-0.495398,-0.127747,-0.135030,0.468675,0.347619,0.152890,0.158890
-0.374192,-0.475756,-0.456096,-0.419412,-0.379642,-0.243866,-0.286065,-0.488622,-0.451704,-0.463305,-0.304180,-0.130425,0.175375,0.207152,0.101501,0.188543,-0.418915,-0.475911,-0.406648,-0.355208,-0.460861,-0.405416,-0.508783,-0.497482,-0.529187,-0.474760,-0.126319,-0.157003,0.380558,0.196544,0.043126,0.140363
-0.457156,-0.523680,-0.488149,-0.486612,-0.449590,-0.282776,-0.298926,-0.515880,-0.502608,-0.484785,-0.286860,-0.140834,0.177075,0.217015,0.096559,0.188393,-0.526221,-0.508153,-0.485157,-0.442564,-0.511249,-0.407274,-0.533581,-0.519191,-0.561172,-0.508839,-0.125639,-0.126921,0.478033,0.227970,0.062863,0.163824
-0.458875,-0.494244,-0.473130,-0.436076,-0.399527,-0.262718,-0.284272,-0.495489,-0.459656,-0.479122,-0.263251,-0.136312,0.327111,0.485004,0.212135,0.292588,-0.501725,-0.476509,-0.430239,-0.424385,-0.479209,-0.375404,-0.477524,-0.474187,-0.479180,-0.420294,-0.118633,0.029117,0.849578,0.537499,0.138603,0.149678
-0.453837,-0.444191,-0.418549,-0.390478,-0.345748,-0.248336,-0.268212,-0.459309,-0.364721,-0.404939,-0.274863,-0.132303,0.400678,0.658790,0.299202,0.358641,-0.467200,-0.422585,-0.390249,-0.316139,-0.357171,-0.306181,-0.460395,-0.428570,-0.375347,-0.365978,-0.106852,0.212685,1.104230,0.601573,0.169622,0.202576
-0.363082,-0.449760,-0.429333,-0.394376,-0.379738,-0.254423,-0.282205,-0.488751,-0.409024,-0.412347,-0.258531,-0.123367,0.331396,0.431985,0.239569,0.489422,-0.374271,-0.409297,-0.364762,-0.352730,-0.382574,-0.269178,-0.463367,-0.446465,-0.501511,-0.424881,-0.116429,0.064446,0.937217,0.635411,0.224544,0.239631
-0.348702,-0.379478,-0.349418,-0.298026,-0.278955,-0.238462,-0.244529,-0.395793,-0.278669,-0.340060,-0.243797,-0.097577,0.346998,0.462327,0.244544,0.337977,-0.334721,-0.323645,-0.273673,-0.229620,-0.285491,-0.255931,-0.398189,-0.389671,-0.356063,-0.314535,-0.105403,0.138280,0.969672,0.636156,0.247813,0.297037
-0.327457,-0.368985,-0.350749,-0.312541,-0.290385,-0.240753,-0.234253,-0.424306,-0.323873,-0.392213,-0.245636,-0.125922,0.310620,0.414239,0.194662,0.270084,-0.372210,-0.331670,-0.289771,-0.278208,-0.289892,-0.262872,-0.389359,-0.379540,-0.324150,-0.360282,-0.111821,0.059722,0.934851,0.611164,0.177164,0.175431
-0.180834,-0.235836,-0.227893,-0.182934,-0.166271,-0.211496,-0.218950,-0.359514,-0.249117,-0.296272,-0.245051,-0.117698,0.331194,0.426427,0.214091,0.309539,-0.281281,-0.196802,-0.161045,-0.167535,-0.103915,-0.128806,-0.326929,-0.331437,-0.263962,-0.335467,-0.107136,0.097743,0.945396,0.627329,0.232406,0.264563
-0.273203,-0.336319,-0.319145,-0.278104,-0.260301,-0.235674,-0.230782,-0.419336,-0.296535,-0.367138,-0.228088,-0.115677,0.323014,0.431156,0.245032,0.503624,-0.349861,-0.306494,-0.273701,-0.229228,-0.264590,-0.221549,-0.374522,-0.382267,-0.353699,-0.368469,-0.110509,0.080720,0.942689,0.627326,0.218424,0.423210
-0.218387,-0.320648,-0.286223,-0.230897,-0.247863,-0.224850,-0.224293,-0.385411,-0.200299,-0.199924,-0.205470,-0.004850,0.694117,0.667182,0.463612,0.762452,-0.210776,-0.194841,-0.097704,-0.143288,-0.076285,-0.044773,-0.311610,-0.287629,-0.299056,-0.280263,-0.100008,0.421273,1.167877,0.763896,0.310353,0.350126
-0.160201,-0.274838,-0.231585,-0.177974,-0.220720,-0.223938,-0.228414,-0.334783,-0.132189,-0.174431,-0.197709,0.009031,0.743689,0.694058,0.404869,0.577108,-0.241832,-0.248131,-0.175104,-0.180267,-0.163510,-0.166237,-0.338916,-0.310977,-0.270713,-0.260297,-0.101891,0.306633,1.142122,0.782337,0.371942,0.495247
-0.253959,-0.336666,-0.267925,-0.247884,-0.241697,-0.226593,-0.229860,-0.376462,-0.241524,-0.319539,-0.222979,-0.074007,0.489701,0.548294,0.305071,0.514976,-0.316589,-0.290415,-0.230180,-0.207212,-0.225137,-0.234865,-0.360548,-0.368757,-0.274573,-0.303468,-0.108174,0.175852,1.023193,0.695740,0.271098,0.439147
-0.223932,-0.306118,-0.252626,-0.218358,-0.210384,-0.219938,-0.226083,-0.349689,-0.222356,-0.272521,-0.222570,-0.062720,0.489881,0.532538,0.285155,0.482616,-0.263328,-0.255014,-0.195242,-0.138650,-0.132520,-0.190482,-0.343587,-0.341985,-0.264712,-0.290732,-0.103769,0.226262,1.052308,0.715798,0.275662,0.403976
-0.172087,-0.308436,-0.253837,-0.235774,-0.226598,-0.226829,-0.228419,-0.338473,-0.198576,-0.260739,-0.219135,-0.055554,0.451321,0.502051,0.282140,0.533486,-0.265508,-0.274431,-0.220352,-0.209331,-0.192628,-0.220363,-0.361584,-0.318182,-0.242896,-0.271878,-0.100198,0.299326,1.032713,0.686453,0.274774,0.442197
-0.102155,-0.222415,-0.204807,-0.143869,-0.168550,-0.209634,-0.196750,-0.237141,-0.104476,-0.182753,-0.186004,-0.037305,0.507821,0.590700,0.291679,0.514660,-0.196287,-0.212672,-0.174471,-0.150538,-0.121223,-0.152863,-0.299154,-0.262924,-0.213959,-0.196843,-0.084418,0.611267,1.638675,1.050501,0.447958,0.528614
-0.146815,-0.283147,-0.245437,-0.191056,-0.178219,-0.219278,-0.205142,-0.351422,-0.183135,-0.257408,-0.218927,-0.073027,0.557331,0.695672,0.319393,0.498550,-0.234337,-0.253426,-0.205951,-0.171016,-0.166087,-0.131143,-0.352682,-0.272436,-0.218158,-0.256076,-0.098839,0.309815,1.251609,0.788587,0.259062,0.436484
-0.219628,-0.303685,-0.247585,-0.228927,-0.224831,-0.229881,-0.220794,-0.358467,-0.171686,-0.262323,-0.212720,-0.047787,0.547774,0.616135,0.313840,0.499278,-0.277755,-0.266811,-0.210813,-0.187793,-0.173566,-0.190605,-0.331582,-0.283532,-0.232326,-0.291165,-0.101033,0.403644,1.421995,0.901963,0.366100,0.471916
-0.211374,-0.285263,-0.229505,-0.212830,-0.209025,-0.227670,-0.212936,-0.336331,-0.077746,-0.205634,-0.188895,-0.024740,0.641683,0.715844,0.342366,0.526362,-0.264204,-0.262983,-0.188541,-0.176930,-0.183196,-0.154755,-0.269680,-0.263387,-0.218702,-0.247819,-0.093689,0.381182,1.350534,0.812135,0.297654,0.417921
-0.218852,-0.300838,-0.251983,-0.219686,-0.186432,-0.216157,-0.214618,-0.346170,-0.149529,-0.279293,-0.218358,-0.027373,1.056879,1.292016,0.580444,0.690720,-0.284845,-0.268543,-0.169698,-0.147885,-0.201328,-0.131088,-0.281173,-0.261696,-0.217020,-0.198054,-0.098288,0.293304,1.080985,0.672332,0.423939,0.582330
-0.153549,-0.225077,-0.221204,-0.149665,-0.163856,-0.201842,-0.156711,-0.235816,-0.108997,-0.250911,-0.184100,-0.051357,0.438490,0.507557,0.262753,0.527877,-0.212068,-0.192382,-0.107268,-0.120930,-0.141457,-0.134426,-0.233319,-0.249136,-0.200250,-0.257731,-0.104463,0.167565,1.009409,0.616437,0.265779,0.473548
-0.207607,-0.270233,-0.214658,-0.168230,-0.167034,-0.204712,-0.209825,-0.312632,-0.186307,-0.294714,-0.215172,-0.069845,0.392238,0.470239,0.250346,0.464524,-0.261761,-0.222168,-0.171252,-0.141057,-0.122048,-0.131507,-0.304680,-0.253464,-0.235657,-0.266180,-0.107017,0.134150,0.973687,0.583595,0.211496,0.318167
-0.179733,-0.257548,-0.211462,-0.235341,-0.209947,-0.221170,-0.208292,-0.335781,-0.200695,-0.299970,-0.200705,-0.059065,0.414236,0.484721,0.237099,0.426801,-0.260496,-0.263644,-0.198343,-0.184280,-0.228030,-0.237165,-0.312430,-0.297045,-0.287737,-0.291283,-0.106915,0.111999,0.979095,0.595538,0.237447,0.391221
0.208983,-0.029934,0.103974,0.041640,0.027677,-0.158634,-0.138692,-0.060415,0.164732,0.074209,-0.083973,0.059874,0.688674,0.745648,0.406132,0.654512,0.036455,-0.029058,-0.007025,-0.010357,0.008322,-0.037402,-0.198733,-0.131352,0.114763,-0.002864,-0.074658,0.497847,1.191889,0.783881,0.397357,0.542817
0.017186,-0.118064,-0.009273,-0.014961,-0.006167,-0.170547,-0.145539,-0.068643,0.091713,-0.049621,-0.135936,0.000538,0.593655,0.627519,0.305953,0.488602,-0.044695,-0.043221,0.021313,0.057338,0.033639,-0.032917,-0.169089,-0.135803,-0.069480,-0.087740,-0.089290,0.321094,1.118908,0.695018,0.315120,0.357377
0.645436,0.298962,0.529357,0.489709,0.459621,-0.072952,0.017033,0.419775,0.678744,0.401746,-0.046931,0.095628,0.698636,0.706943,0.466722,0.906401,0.431898,0.425566,0.524070,0.572371,0.523401,0.457907,0.184710,0.233455,0.452795,0.259020,-0.052476,0.751894,1.196822,0.645580,0.247876,0.388176
0.082557,-0.060412,0.064079,0.056486,0.066073,-0.108770,-0.117575,-0.026789,0.172519,0.030210,-0.098157,0.018959,0.581343,0.671820,0.322780,0.518508,-0.006277,0.012914,0.064666,0.094850,0.072868,0.003910,-0.132054,-0.078517,0.068190,-0.014960,-0.072492,0.658172,1.381355,0.751549,0.265969,0.403684
0.134565,-0.033012,0.140039,0.114820,0.133637,-0.095590,-0.085785,0.073151,0.247027,0.099873,-0.107874,0.035681,0.609775,0.727716,0.367636,0.562508,0.060173,0.110615,0.151819,0.191721,0.182381,0.143420,-0.055007,-0.018408,0.219807,0.071754,-0.061637,0.801128,1.510492,0.796703,0.280493,0.392495
0.188360,-0.023089,0.117471,0.097225,0.092658,0.099890,-0.110921,0.021921,0.200471,0.114810,-0.110498,0.043790,0.650409,0.724412,0.384561,0.620209,0.068307,0.054718,0.092247,0.152984,0.106931,0.038021,-0.118871,-0.072973,0.112421,-0.006959,-0.070862,0.671119,1.424131,0.814664,0.326126,0.475011
0.135310,-0.044747,0.108433,0.103855,0.100977,0.087453,-0.096014,0.127755,0.338209,0.198566,-0.089377,0.054334,0.610910,0.685817,0.399490,0.589052,0.041532,0.036198,0.101719,0.164637,0.112128,0.051665,-0.093107,-0.046844,0.209673,0.094445,-0.058773,0.693642,1.529567,1.162812,0.337058,0.415781
0.140512,-0.030068,0.098740,0.091236,0.100793,0.131047,-0.110530,0.052625,0.235210,0.114219,-0.114319,0.044451,0.735235,0.902567,0.458083,0.589520,0.059106,0.037046,0.097610,0.123345,0.109273,0.006662,-0.090856,-0.082952,0.193805,0.032104,-0.065386,0.774366,1.598932,1.022871,0.321612,0.465609
0.153401,-0.037540,0.103765,0.100405,0.091060,0.133134,-0.106044,0.111101,0.291347,0.168834,-0.096106,0.051638,0.598055,0.651863,0.411085,0.706935,0.061498,0.063875,0.118621,0.159363,0.107122,0.015001,-0.090315,-0.079992,0.181425,0.055876,-0.063479,0.698827,1.283265,0.646920,0.233893,0.440737
0.154733,-0.068801,0.079722,0.070136,0.063838,0.167549,-0.116232,0.072896,0.224684,0.124199,-0.099217,0.055964,0.640577,0.650991,0.338358,0.572492,0.032235,0.024423,0.078296,0.107563,0.078627,-0.005127,-0.106286,-0.115275,0.143517,0.013274,-0.068294,0.668028,1.230779,0.618454,0.213642,0.419545
0.188761,-0.039211,0.102638,0.084899,0.073499,0.207768,-0.110889,0.100744,0.277885,0.185937,-0.090509,0.097308,0.879110,0.835811,0.430664,0.654033,0.057551,0.026584,0.074088,0.122881,0.073108,-0.011148,-0.096372,-0.111053,0.147687,0.039152,-0.066474,0.698976,1.282783,0.757844,0.358841,0.484419
0.257687,0.001223,0.203644,0.160880,0.158077,0.240819,-0.107589,0.129010,0.275114,0.179075,-0.094929,0.104146,0.816691,0.829099,0.448890,0.674794,0.134500,0.098313,0.160259,0.184410,0.193926,0.028251,-0.032770,-0.068606,0.275503,0.071240,-0.064584,0.722680,1.283676,0.747653,0.372989,0.489841
0.511557,0.129135,0.379276,0.338056,0.280410,0.266363,-0.000991,0.260428,0.483410,0.349345,-0.050820,0.121069,0.800455,0.745440,0.397146,0.661653,0.313988,0.288344,0.364872,0.396784,0.372710,0.144238,0.088666,0.028302,0.401901,0.145341,-0.056071,0.721192,1.239791,0.688375,0.305710,0.564719
0.656055,0.385542,0.602730,0.725880,0.661415,0.237086,0.068428,0.649706,0.800867,0.585718,-0.046697,0.128139,0.720103,0.768854,0.355618,0.603600,0.651598,0.569493,0.708682,0.882571,0.773023,0.508661,0.478594,0.378582,0.810663,0.584457,-0.007467,1.381034,1.921837,0.992076,0.386358,0.557169
0.286939,0.029179,0.205353,0.204033,0.177970,0.269409,-0.071060,0.238230,0.401706,0.298790,-0.065822,0.127511,0.892064,0.928977,0.497614,0.750932,0.179224,0.141343,0.183801,0.305140,0.194941,0.117650,0.033307,-0.008689,0.290147,0.163053,-0.046897,0.942224,1.588195,0.896940,0.322183,0.303332
0.318192,0.005532,0.193765,0.211314,0.175289,0.259058,-0.067428,0.255945,0.380127,0.271411,-0.071294,0.090874,0.723177,0.821310,0.519280,0.870902,0.163985,0.118639,0.219233,0.285973,0.210598,0.101975,0.031274,-0.025949,0.273507,0.183541,-0.049891,0.909701,1.519946,0.833435,0.494183,0.929457
0.251788,-0.005425,0.191899,0.219408,0.186978,1.463606,-0.057168,0.199092,0.371940,0.243075,-0.091582,0.054335,0.651851,0.809297,0.458362,0.748715,0.119291,0.115296,0.207879,0.316676,0.273870,0.138116,0.060108,0.021967,0.309490,0.145730,-0.053862,0.810024,1.555648,0.964310,0.665005,1.041410
0.274367,0.043959,0.292694,0.285830,0.267678,1.434811,-0.039600,0.301046,0.437825,0.314121,-0.067298,0.064601,0.682342,0.870264,0.390584,0.572897,0.202571,0.191425,0.273767,0.454869,0.301570,0.160068,0.103815,-0.025425,0.337074,0.285208,-0.036190,1.004882,1.644874,0.918857,0.388344,0.616236
0.361951,0.090047,0.246311,0.269132,0.228676,1.598780,-0.009342,0.251401,0.415144,0.277417,-0.084255,0.062217,0.663928,0.782125,0.410036,0.588907,0.250864,0.231230,0.304318,0.374724,0.316404,0.221859,0.090761,0.003527,0.348509,0.195901,-0.046915,0.889444,1.582423,0.909313,0.481427,0.676559
0.461110,0.137379,0.335075,0.362036,0.324041,1.802081,0.003721,0.345775,0.507996,0.355145,-0.062525,0.095165,0.830451,1.011293,0.639651,1.049107,0.390124,0.302232,0.386393,0.469093,0.415836,0.299061,0.148641,0.049622,0.413975,0.288835,-0.038191,0.978255,1.605178,0.983425,0.524579,0.799145
0.408476,0.118742,0.320211,0.334399,0.291613,1.774122,0.010375,0.314131,0.529637,0.382552,-0.059341,0.108701,0.837239,0.894734,0.533235,0.827061,0.327873,0.271267,0.358469,0.431975,0.364761,0.256639,0.143335,0.043816,0.459901,0.246209,-0.043552,0.879948,1.417168,0.897355,0.473103,0.681344
0.518709,0.180694,0.394527,0.402958,0.341406,1.811282,0.034642,0.413521,0.597998,0.490011,-0.040479,0.132876,0.893494,0.865790,0.535450,0.854417,0.396019,0.332405,0.412512,0.504269,0.448796,0.358610,0.170615,0.062017,0.492141,0.318105,-0.036507,1.003746,1.469589,0.889173,0.552746,0.777746
0.451058,0.129081,0.317726,0.354243,0.340402,1.876033,0.043196,0.366541,0.532325,0.387192,-0.089375,0.097399,0.867167,0.989325,0.669036,1.023441,0.339392,0.283368,0.419887,0.504963,0.405429,0.307627,0.203442,0.072489,0.501438,0.292409,-0.037771,0.910143,1.427371,0.989237,0.680133,1.001245
0.577611,0.186289,0.405452,0.434018,0.362185,1.940977,0.042174,0.355194,0.552911,0.437908,-0.067341,0.129965,1.117971,1.292024,0.807701,1.096430,0.448894,0.347060,0.433758,0.563482,0.472570,0.412658,0.173058,0.120032,0.508873,0.309761,-0.036216,0.945262,1.569566,1.274602,0.860801,1.034362
0.874015,0.380799,0.588826,0.596466,0.538201,1.929273,0.095076,0.653006,0.902890,0.897718,0.055595,0.380082,1.914501,1.956176,1.170291,1.374148,0.672785,0.527418,0.594750,0.741313,0.626272,0.553156,0.256354,0.276074,0.709909,0.486329,-0.018839,1.134865,1.759773,1.525831,1.027805,1.122647
0.678656,0.340865,0.603420,0.631605,0.547843,1.945397,0.104217,0.585282,0.846187,0.653245,-0.058380,0.192831,1.184546,1.242973,0.743465,1.011012,0.597381,0.580268,0.669141,0.800516,0.750876,0.707422,0.326828,0.376555,0.743547,0.465777,-0.025460,1.043215,1.598606,1.124472,0.687186,0.902385
0.574720,0.242332,0.485546,0.508381,0.454672,1.940312,0.062372,0.466714,0.705736,0.565201,-0.099843,0.172202,1.101937,1.222792,0.749641,1.016783,0.504399,0.456130,0.565562,0.696828,0.612854,0.531182,0.264888,0.287659,0.598371,0.381843,-0.030235,0.990221,1.573385,1.145864,0.696190,0.904542
0.720755,0.374697,0.625301,0.653457,0.599770,1.930636,0.115086,0.653331,0.880356,0.700327,-0.068026,0.220078,1.173044,1.235530,0.770120,1.101200,0.633761,0.578579,0.719606,0.834918,0.786545,0.647311,0.398174,0.442761,0.852465,0.564894,-0.012981,1.218146,1.767014,1.291525,0.725669,0.884706
0.630681,0.338885,0.606072,0.654972,0.602130,1.959594,0.102177,0.583934,0.883275,0.723229,-0.085782,0.196348,1.159676,1.188439,0.702633,0.982220,0.664508,0.654525,0.781804,0.900849,0.821807,0.732282,0.376375,0.493643,0.824403,0.481659,-0.012713,1.167726,1.727636,1.267658,0.685737,0.852750
0.710743,0.413197,0.741987,0.757496,0.683839,1.985295,0.175152,0.700875,0.881036,0.684910,-0.071270,0.196664,1.219976,1.231533,0.730427,1.004668,0.797892,0.807783,0.929267,1.080238,1.030370,0.912716,0.536985,0.570441,0.812016,0.523589,-0.016367,1.149936,1.741106,1.263648,0.851204,1.359483
0.691341,0.361520,0.703272,0.694149,0.647626,2.011643,0.136122,0.642627,1.012412,0.852616,-0.015565,0.237286,1.290126,1.366876,0.800291,1.223932,0.700209,0.662213,0.833189,0.991986,0.858398,0.810162,0.498400,0.564405,0.818836,0.613342,0.008500,1.588257,2.077674,1.469212,0.904385,1.170742
0.511675,0.194617,0.410415,0.476095,0.398240,1.999097,0.046337,0.367663,0.647106,0.501753,-0.104566,0.178773,1.267041,1.392355,0.891750,1.354265,0.475653,0.429245,0.544376,0.686032,0.616084,0.624851,0.265830,0.372165,0.576426,0.302916,-0.034102,0.946812,1.711082,1.448970,0.830994,0.936741
0.578759,0.229522,0.463126,0.524615,0.445144,1.825775,0.061958,0.442792,0.730521,0.558604,-0.080412,0.194505,1.246685,1.303580,0.799006,1.135214,0.518664,0.467319,0.596085,0.716192,0.625618,0.619928,0.297552,0.386962,0.566427,0.391115,-0.028443,1.029442,1.718754,1.337366,0.810085,1.024348
0.801936,0.376873,0.652883,0.693004,0.584188,1.843919,0.115139,0.575820,0.906973,0.714419,-0.036363,0.227150,1.338322,1.358018,0.837661,1.165379,0.732444,0.649788,0.738280,0.853931,0.760102,0.714180,0.390514,0.583539,0.678857,0.434148,-0.021156,1.089937,1.784207,1.430898,0.884066,1.077398
0.665845,0.290135,0.522845,0.570945,0.478563,1.834473,0.095684,0.473721,0.786181,0.619611,-0.062202,0.219466,1.269036,1.308080,0.817893,1.214247,0.571020,0.513844,0.630050,0.754047,0.658983,0.631740,0.314885,0.408005,0.646437,0.455885,-0.024511,1.070736,1.882894,1.696500,0.865045,0.989549
0.763130,0.326718,0.553155,0.581942,0.487917,1.832280,0.079979,0.462805,0.774733,0.579768,-0.069229,0.218893,1.361542,1.403217,0.869745,1.277814,0.644042,0.556855,0.661149,0.766694,0.674690,0.655029,0.320043,0.423556,0.623049,0.404002,-0.029490,1.032975,1.691118,1.398262,1.005547,1.191659
0.773491,0.351402,0.648524,0.644354,0.546973,1.817458,0.107537,0.486079,0.779912,0.565497,-0.076025,0.197522,1.270625,1.265969,0.776092,1.240519,0.698528,0.632281,0.785253,0.894965,0.819105,0.795015,0.383547,0.465784,0.675900,0.438418,-0.027545,1.067311,1.815316,1.288225,0.831198,1.099785
0.820549,0.432050,0.676708,0.712436,0.629795,1.796582,0.140412,0.580770,0.860917,0.680303,-0.031967,0.289502,1.792942,1.701455,1.003267,1.398341,0.757855,0.683057,0.848230,0.953785,0.832747,0.809310,0.437538,0.576002,0.703609,0.468090,-0.020885,1.185097,2.106062,1.651911,1.067807,1.196806
0.743031,0.368720,0.621810,0.676238,0.581508,1.776373,0.131098,0.560636,0.852245,0.649689,-0.055703,0.266395,1.603711,1.504014,0.850071,1.223639,0.688586,0.648539,0.775118,0.910200,0.813658,0.818979,0.431160,0.554586,0.777371,0.480323,-0.018039,1.327798,2.480603,1.734950,0.960843,1.136071
0.791153,0.407825,0.676490,0.745388,0.622149,1.712968,0.160104,0.648426,0.928087,0.695961,-0.050133,0.245233,1.425472,1.447045,0.822511,1.131220,0.760230,0.727299,0.869852,0.967385,0.915414,0.824464,0.428627,0.533057,0.936232,0.616887,-0.011594,1.231865,2.021370,1.546716,0.888371,1.116310
0.909033,0.486035,0.750349,0.822070,0.719260,1.806204,0.188420,0.656011,1.060314,0.775804,-0.023878,0.265104,1.487620,1.521286,0.863306,1.207293,0.856490,0.756167,0.896645,1.040535,0.918765,0.870481,0.569961,0.636352,0.989947,0.613203,-0.006279,1.250626,2.034225,1.551147,0.906696,1.161434
0.811527,0.446178,0.770285,0.763576,0.675817,1.627353,0.144378,0.671118,0.869126,0.632699,-0.062389,0.228903,1.433483,1.441378,0.841806,1.186166,0.861357,0.795494,0.921552,1.050683,0.872640,0.816018,0.448998,0.565317,0.850751,0.615174,-0.014431,1.191132,1.984337,1.552227,0.970558,1.249281
0.694467,0.345039,0.608657,0.638241,0.555044,1.240237,0.107021,0.514901,0.742481,0.553650,-0.079782,0.213300,1.438532,1.479261,0.929620,1.266200,0.684587,0.664644,0.813092,0.888752,0.859398,0.780636,0.386526,0.514527,0.850682,0.420986,-0.031521,0.973347,1.825919,1.497514,0.964765,1.392997
0.687461,0.350918,0.614175,0.642587,0.577499,2.216645,0.115865,0.590270,0.829534,0.610036,-0.065950,0.226065,1.448095,1.482631,0.900908,1.263374,0.672449,0.654219,0.784397,0.891921,0.829696,0.782744,0.423063,0.531822,0.781970,0.461679,-0.026272,1.019064,1.836142,1.497914,0.971028,1.527172
0.692441,0.337683,0.600909,0.628573,0.533441,0.105476,0.150763,0.522243,0.753978,0.537322,-0.074313,0.230629,1.490878,1.542218,0.941090,1.252605,0.661461,0.622102,0.735092,0.836745,0.764816,0.773887,0.337330,0.499253,0.738746,0.429681,-0.031580,1.001679,1.955956,1.620783,0.963529,1.129473
0.840408,0.397428,0.617443,0.605384,0.516624,0.032788,0.157255,0.518060,0.787323,0.572506,-0.053465,0.246916,1.520242,1.507878,0.983364,1.362829,0.716344,0.611215,0.698429,0.776038,0.679806,0.648746,0.315520,0.478624,0.713488,0.441639,-0.027460,1.162709,2.006320,1.548378,1.028445,1.277945
0.835986,0.450561,0.704423,0.689085,0.596932,0.005785,0.125831,0.533238,0.736367,0.505408,-0.069788,0.202649,1.315219,1.303674,0.787158,1.084726,0.788051,0.707601,0.784379,0.854568,0.763635,0.736656,0.405599,0.616647,0.746876,0.407287,-0.033814,0.966858,1.778878,1.436402,0.781836,0.979132
0.685012,0.336089,0.603801,0.639479,0.561520,0.015930,0.117514,0.524475,0.759308,0.498780,-0.079661,0.195989,1.429663,1.483933,0.820871,1.054480,0.654012,0.631744,0.758258,0.852242,0.758170,0.700872,0.404904,0.554353,0.816342,0.462399,-0.028565,1.009155,1.961802,1.846435,1.079864,1.248105
0.685250,0.336037,0.598146,0.630499,0.580033,0.014036,0.156129,0.505729,0.755560,0.499722,-0.071082,0.210524,1.526624,1.550124,0.832984,1.004181,0.635642,0.619896,0.751860,0.841189,0.741192,0.734566,0.379138,0.544215,0.819497,0.497579,-0.027531,1.057834,2.060907,2.082672,1.089044,1.128566
0.776522,0.401024,0.720994,0.723350,0.644675,0.035852,0.223396,0.672130,0.833606,0.616927,-0.062277,0.228303,1.454760,1.473221,0.805631,0.990919,0.756740,0.716599,0.867800,0.929815,0.831273,0.672143,0.427166,0.535482,0.868529,0.554623,-0.017191,1.080888,1.917066,1.702242,0.944242,1.216354
0.755443,0.471722,0.814333,0.884374,0.787385,0.088712,0.244043,0.702677,0.894228,0.636526,-0.042154,0.253069,1.614541,1.603149,0.927986,1.181988,0.798741,0.886855,1.053800,1.147642,1.169634,1.111893,0.614961,0.836437,0.919876,0.621888,-0.017695,1.106219,1.956938,1.835864,1.023581,1.190114
0.695243,0.338105,0.582825,0.603454,0.545045,0.021046,0.167799,0.509448,0.720791,0.490276,-0.082452,0.181558,1.326904,1.335163,0.748460,1.056429,0.653222,0.604355,0.728695,0.789469,0.731080,0.631841,0.345611,0.483813,0.744431,0.439343,-0.030570,0.995121,1.859847,1.602043,0.860330,1.124892
0.846658,0.441206,0.753000,0.746999,0.664881,-0.009010,0.229980,0.664275,0.894726,0.608899,-0.050490,0.305752,1.588861,1.452684,0.881908,1.117655,0.781522,0.717243,0.846801,0.883270,0.854399,0.721006,0.397829,0.475374,0.922735,0.588405,-0.018448,1.179219,1.943708,1.636985,0.868396,1.074189
0.570542,0.264462,0.484838,0.506568,0.487797,-0.007140,0.132880,0.392760,0.621040,0.402049,-0.097731,0.173432,1.290825,1.288482,0.768268,1.075356,0.561026,0.521804,0.681974,0.734869,0.659805,0.593957,0.296792,0.355930,0.710202,0.388422,-0.029399,0.973799,1.839550,1.599088,0.825042,1.079747
0.674017,0.383320,0.718128,0.698595,0.608708,0.021297,0.222910,0.514536,0.612470,0.394740,-0.110423,0.175990,1.370275,1.299549,0.723122,1.025677,0.678731,0.692016,0.861609,0.930339,0.851268,1.748240,0.414954,0.390335,0.860265,0.474515,-0.030546,1.009730,2.016212,1.781827,0.924297,1.106495
0.677585,0.377419,0.618456,0.616966,0.554694,-0.000482,0.170446,0.488490,0.663914,0.430090,-0.098741,0.184782,1.445980,1.414971,0.814141,1.068024,0.675860,0.626255,0.785532,0.883066,0.749490,1.084378,0.345114,0.455506,0.723387,0.437168,-0.027856,1.071223,1.886214,1.668851,0.951545,1.133519
0.598609,0.293685,0.526864,0.536170,0.495973,0.018959,0.187222,0.451449,0.641415,0.402361,-0.114779,0.177695,1.401801,1.483935,0.820028,1.023501,0.569798,0.527210,0.678770,0.743579,0.699780,1.894883,0.307398,0.277848,0.769316,0.531921,-0.026657,1.097856,1.897082,1.708129,0.972129,1.155060
0.644786,0.324443,0.586435,0.588234,0.568642,-0.037097,0.178090,0.525724,0.776586,0.552055,-0.083440,0.208584,1.427035,1.393931,0.780756,1.157738,0.642518,0.594585,0.743206,0.803114,0.720586,1.617265,0.357570,0.304719,0.862311,0.626319,-0.009510,1.311598,2.001519,1.697052,1.043532,1.712309
0.616026,0.292740,0.532240,0.509126,0.470465,-0.041392,0.161820,0.399825,0.625069,0.406944,-0.115525,0.188761,1.390908,1.305948,0.704483,0.991818,0.587016,0.511760,0.660418,0.705922,0.663248,1.876854,0.289757,0.265583,0.742861,0.439062,-0.032026,1.061782,1.852731,1.577821,0.908898,1.158109
0.652830,0.347580,0.584082,0.600591,0.574559,-0.031539,0.185306,0.540441,0.808274,0.541438,-0.083340,0.218759,1.414955,1.306579,0.724244,1.097854,0.669286,0.593474,0.769292,0.807716,0.826224,2.115704,0.401625,0.351040,0.936213,0.616816,-0.018351,1.128203,1.829106,1.583364,0.922054,1.170010
0.565732,0.265090,0.465767,0.443960,0.459172,-0.062369,0.136307,0.355894,0.556886,0.334857,-0.131656,0.159858,1.355655,1.274797,0.677528,0.935002,0.542184,0.500194,0.610035,0.693424,0.592529,1.840788,0.196360,0.240079,0.571182,0.341979,-0.042617,0.889606,1.745673,1.546169,0.905893,1.157099
0.670564,0.285621,0.499868,0.468184,0.447889,-0.036613,0.133552,0.405414,0.737622,0.519591,-0.085338,0.231585,1.591955,1.448008,0.788239,1.029011,0.568063,0.473948,0.591735,0.660374,0.595488,2.102490,0.298039,0.319785,0.624677,0.465449,-0.031696,1.054855,1.839747,1.625024,0.968124,1.180245
0.469473,0.198115,0.428469,0.401799,0.390509,-0.067465,0.129934,0.325130,0.479032,0.299269,-0.136017,0.191385,1.653736,1.472083,0.758810,0.882394,0.502132,0.436738,0.578413,0.652028,0.608202,2.126089,0.282596,0.222824,0.547947,0.309107,-0.045899,0.838562,1.786393,1.585564,0.913595,1.147927
0.418346,0.173475,0.388990,0.404062,0.378175,-0.051715,0.148888,0.323673,0.470476,0.329076,-0.121801,0.243787,1.855106,1.694473,0.865751,0.998177,0.448097,0.409691,0.578338,0.645930,0.621015,2.192263,0.229210,0.242888,0.557933,0.300048,-0.047071,0.843785,1.857234,1.740422,0.986849,1.085493
0.533489,0.282169,0.519579,0.484598,0.503013,-0.018303,0.194195,0.454494,0.567516,0.472444,-0.090837,0.291626,1.862550,1.619552,0.878680,1.058448,0.613902,0.513285,0.690221,0.778442,0.709689,2.345911,0.239176,0.306798,0.702667,0.392509,-0.033730,1.167441,2.333820,1.758862,0.993999,1.107655
0.460222,0.203568,0.397941,0.410702,0.367167,0.009822,0.158076,0.348882,0.493900,0.341703,-0.123212,0.231554,1.833393,1.690599,0.878887,1.020492,0.440596,0.403165,0.549990,0.638945,0.554900,2.260050,0.185831,0.201564,0.493686,0.290388,-0.047353,0.804638,1.591490,1.786412,0.946056,1.028067
0.452307,0.181295,0.419777,0.401938,0.374957,0.034832,0.108428,0.337948,0.490101,0.351290,-0.119023,0.237402,1.844741,1.701984,0.869695,1.076819,0.443013,0.409925,0.535692,0.619398,0.549122,2.245545,0.214342,0.193312,0.487800,0.290317,-0.049028,0.790594,1.679243,1.787792,1.015640,1.127175
0.633279,0.307462,0.501062,0.478986,0.451742,0.080494,0.162712,0.416921,0.559135,0.417654,-0.103484,0.256328,1.899009,1.712310,0.920115,1.136945,0.580292,0.474548,0.582032,0.666374,0.626067,2.238680,0.240791,0.235856,0.535353,0.360101,-0.043052,0.884190,1.789144,1.902438,1.137429,1.242077
0.528146,0.296201,0.528789,0.550529,0.526814,0.136239,0.151943,0.503205,0.652351,0.476754,-0.097634,0.245507,1.896756,1.759915,0.887000,1.098343,0.525851,0.517278,0.721627,0.777332,0.744967,2.393390,0.295051,0.333723,0.686964,0.448887,-0.030996,1.007653,1.852223,2.119156,1.169105,1.124304
0.549384,0.272852,0.521817,0.501528,0.484331,0.108291,0.106908,0.419189,0.552909,0.399493,-0.112874,0.257217,2.013186,1.831857,0.988762,1.190692,0.503756,0.529649,0.690784,0.785822,0.727238,2.236721,0.327142,0.280137,0.572502,0.344806,-0.044558,0.854366,1.915323,1.994283,1.184653,1.215937
0.532404,0.279528,0.509278,0.521137,0.491100,0.198892,0.092065,0.479236,0.549650,0.425220,-0.111932,0.254278,1.986599,1.798827,0.994883,1.148804,0.508733,0.525733,0.688125,0.770084,0.718957,2.408661,0.279991,0.272434,0.588897,0.368301,-0.044254,0.866737,1.843485,1.962936,1.083981,0.972449
0.635294,0.353692,0.603577,0.612132,0.616643,0.190274,0.113237,0.608098,0.670236,0.535018,-0.079592,0.292042,2.115722,1.863318,1.016874,1.182174,0.626811,0.631228,0.756905,0.851433,0.868041,2.414454,0.362180,0.410401,0.737013,0.481615,-0.028406,0.957753,1.837723,1.959906,1.104377,0.965235
0.670878,0.339991,0.580646,0.568271,0.526500,0.198104,0.099232,0.570926,0.656097,0.544392,-0.079066,0.309965,2.110598,1.909686,1.061010,1.245386,0.589275,0.576702,0.729349,0.797263,0.769084,2.317420,0.331555,0.336520,0.702931,0.444473,-0.037751,0.886415,1.828392,1.936687,1.115643,1.049870
0.834606,0.449782,0.680382,0.677321,0.631855,0.169432,0.110167,0.567010,0.679275,0.540905,-0.079298,0.296612,2.173717,2.000880,1.008130,1.187704,0.721062,0.724628,0.846569,0.906551,0.882952,2.319210,0.417954,0.422590,0.715433,0.438037,-0.030986,0.912104,1.914342,2.035663,1.098452,1.006071
0.706331,0.446698,0.724543,0.714994,0.690111,0.209847,0.123933,0.628182,0.759451,0.474896,-0.094986,0.276129,2.142363,1.938626,0.976449,1.072949,0.737124,0.694305,0.918422,0.978143,0.962409,2.527972,0.476689,0.412915,0.865413,0.467410,-0.032730,0.886283,2.339885,2.464223,1.285259,0.999232
0.591193,0.298332,0.539817,0.520090,0.474352,0.183252,0.073333,0.419221,0.568735,0.389263,-0.104690,0.290375,2.161403,1.903814,0.966651,1.086730,0.526759,0.535535,0.702247,0.718839,0.711659,2.209392,0.291423,0.260152,0.553208,0.324383,-0.049118,0.883949,1.962427,1.956023,1.160231,1.025429
0.775375,0.420173,0.669809,0.653904,0.582908,0.372153,0.112102,0.587667,0.808113,0.555411,-0.045945,0.363355,2.281550,1.926333,0.964449,1.085091,0.715096,0.637116,0.785088,0.807520,0.791188,2.310586,0.349235,0.288394,0.642221,0.428257,-0.037827,1.130681,2.238644,1.986438,1.150454,1.033753
0.789960,0.453463,0.739869,0.717102,0.653335,0.449656,0.136151,0.559974,0.721958,0.564179,-0.058928,0.337083,2.222614,1.906527,1.006997,1.214417,0.745055,0.724067,0.882876,0.938731,0.884135,2.266415,0.408323,0.431228,0.751774,0.457716,-0.031758,1.038157,1.875589,1.789205,1.057190,1.096480
0.758811,0.437165,0.671011,0.663309,0.566358,0.477498,0.124355,0.547701,0.703645,0.488416,-0.066368,0.308327,2.154172,1.879666,1.020989,1.247931,0.728548,0.707784,0.926641,0.919582,0.967896,2.851430,0.417246,0.441948,0.673026,0.385361,-0.043754,0.887308,1.796655,1.771426,1.074086,1.089777
0.689045,0.349512,0.605753,0.564322,0.506628,0.488041,0.088476,0.467446,0.638099,0.445349,-0.088276,0.292392,2.108329,1.832393,0.932710,1.090569,0.621425,0.583078,0.733822,0.766952,0.711550,2.145952,0.298393,0.296394,0.630084,0.356668,-0.045262,0.883343,1.804512,1.752271,1.030559,0.904490
0.773382,0.395412,0.646082,0.640207,0.546140,0.613520,0.090063,0.512927,0.676783,0.523827,-0.068321,0.336493,2.223425,1.926241,1.021157,1.164379,0.664289,0.643829,0.786545,0.832050,0.761385,1.852808,0.346621,0.349310,0.699052,0.382221,-0.040282,0.968733,1.880650,1.796899,1.043137,0.937040
0.777274,0.409374,0.675152,0.635741,0.583367,0.651301,0.119238,0.588959,0.753508,0.621994,-0.047209,0.376417,2.426659,1.983881,0.992180,1.110126,0.696284,0.642874,0.815755,0.847993,0.844884,2.601196,0.367976,0.362726,0.740449,0.428348,-0.038935,0.969933,1.856682,1.767054,1.010307,0.812378
0.939247,0.538425,0.799512,0.812135,0.723861,0.628859,0.128752,0.699895,0.842216,0.680581,-0.039556,0.414804,2.401445,2.004493,1.040893,1.178793,0.810949,0.814871,0.976840,1.000679,0.922937,0.764991,0.486918,0.452015,0.891068,0.470545,-0.030666,1.240985,2.943053,2.201085,1.245417,0.896649
0.892650,0.500134,0.694897,0.698618,0.612815,0.626090,0.113908,0.639587,0.812250,0.648190,-0.055067,0.345924,2.256968,2.007617,1.079329,1.261949,0.753443,0.702523,0.832359,0.876653,0.811337,0.681829,0.359923,0.402503,0.759431,0.420592,-0.037837,1.151286,2.198369,1.903704,1.109202,0.956643
0.794060,0.373866,0.610574,0.595909,0.544935,0.635274,0.076621,0.504693,0.649006,0.486145,-0.077542,0.348389,2.427032,2.191574,1.191273,1.313263,0.648159,0.610145,0.755452,0.807909,0.733281,0.628524,0.316450,0.360408,0.707033,0.322782,-0.046941,1.013429,2.297213,2.114973,1.311009,1.287241
0.766344,0.364333,0.612199,0.591322,0.533001,0.720828,0.216859,0.487296,0.604464,0.444646,-0.084026,0.352335,2.444656,2.166963,1.185640,1.257657,0.644180,0.616901,0.757315,0.815938,0.756538,0.664421,0.317673,0.398656,0.631158,0.302473,-0.053292,0.785658,2.030084,1.987097,1.218881,1.121321
0.764230,0.378538,0.626242,0.606186,0.546991,0.702337,0.149260,0.512343,0.667358,0.477590,-0.075534,0.358606,2.429567,2.095130,1.087297,1.082137,0.671110,0.630124,0.779337,0.814280,0.767803,0.698140,0.331339,0.412665,0.647016,0.309839,-0.046883,0.806777,2.044206,1.981253,1.139638,0.923469
0.807939,0.430516,0.699645,0.683677,0.617331,0.740412,0.265755,0.578464,0.686560,0.497138,-0.073366,0.358037,2.418157,2.080627,1.073352,1.092494,0.735366,0.716401,0.858646,0.907546,0.858133,0.756455,0.339035,0.426576,0.778804,0.346150,-0.045787,0.832442,2.051807,1.975365,1.117209,0.871476
0.858670,0.472516,0.737229,0.745465,0.686662,0.691967,0.299063,0.618531,0.802778,0.593447,-0.050991,0.375902,2.444198,2.129869,1.133274,1.112166,0.796185,0.772461,0.924678,0.974596,0.948944,0.731716,0.432138,0.499366,0.760875,0.391127,-0.037248,0.890519,2.092470,1.989641,1.121727,0.875509
1.014094,0.610396,0.934812,0.906769,0.789545,0.670352,0.417399,0.748083,0.904230,0.737131,-0.037576,0.419299,2.574650,2.175413,1.135654,1.129124,0.946597,0.942913,1.102982,1.125650,1.127401,0.913305,0.546319,0.666785,0.896862,0.499359,-0.027602,0.946827,2.083253,1.986990,1.147418,0.920542
0.973417,0.571316,0.850782,0.878744,0.759747,0.681198,0.380152,0.807800,0.945223,0.673665,-0.042846,0.371460,2.313327,2.027428,1.061358,1.045241,0.912693,0.883769,1.031150,1.055138,1.051663,0.836043,0.635602,0.709875,1.070427,0.616793,-0.019514,0.993289,2.062626,1.949315,1.120443,0.958977
0.911010,0.535810,0.851432,0.866391,0.797038,0.736239,0.424916,0.708344,0.862644,0.586523,-0.067359,0.310069,2.232825,2.114405,1.156894,1.181996,0.872528,0.890651,1.081012,1.134429,1.084954,0.852531,0.578150,0.552505,0.979668,0.584189,-0.018421,0.974274,2.048006,2.097126,1.157100,1.085916
0.956187,0.576979,0.945042,0.909602,0.858122,0.687726,0.453083,0.840051,0.946382,0.676738,-0.055047,0.309762,2.117395,1.895257,1.028424,1.288921,0.925318,0.939184,1.120901,1.177172,1.094656,0.926407,0.590480,0.623034,1.118094,0.668863,-0.018336,0.928759,2.096532,2.111760,1.083462,1.223187
1.022029,0.594755,0.962388,0.953645,0.869249,0.669696,0.429260,0.786901,0.937449,0.662582,-0.052866,0.318287,2.151370,1.938176,1.049608,1.082535,0.998351,0.983158,1.161133,1.269667,1.206798,0.959983,0.608504,0.644845,1.162907,0.668516,-0.013211,1.148862,2.177491,2.098609,1.127105,1.112621
0.963372,0.566078,0.895386,0.894296,0.778880,0.642601,0.460965,0.721875,0.850984,0.578574,-0.072892,0.308356,2.111135,1.915485,1.007696,1.074374,0.948771,0.914137,1.089411,1.121243,1.054800,0.930528,0.537594,0.576151,0.997956,0.552478,-0.023373,0.963657,2.020660,1.948964,1.126799,1.320897
0.818634,0.466774,0.790723,0.791918,0.711974,0.632707,0.467392,0.588668,0.788718,0.514076,-0.087127,0.289792,2.095571,1.837324,0.984560,0.954751,0.800140,0.815783,1.004674,1.042123,0.986951,0.792823,0.523007,0.552049,0.916387,0.472919,-0.029367,0.889630,1.994662,1.947563,1.023842,1.028984
0.817784,0.434985,0.734356,0.738847,0.652678,0.641827,0.451606,0.562962,0.740859,0.506576,-0.082214,0.310056,2.310318,2.128832,1.187444,1.150458,0.787843,0.758664,0.951067,0.969007,0.946991,0.774476,0.502533,0.508567,0.860546,0.474714,-0.029224,0.884150,1.871034,2.000574,1.205176,1.145505
0.948741,0.546418,0.863671,0.836145,0.722166,0.640348,0.504946,0.642595,0.858580,0.573843,-0.063880,0.317206,2.749609,1.855865,1.012654,1.001292,0.901962,0.828709,1.009266,1.014442,0.974778,0.840460,0.576495,0.577341,0.922837,0.494771,-0.024472,0.928040,1.890674,1.794496,1.004521,1.060446
0.865337,0.483212,0.775417,0.785050,0.676582,0.650944,0.469497,0.582883,0.774667,0.558416,-0.079408,0.286489,2.334010,1.763497,1.008384,1.014339,0.847283,0.809117,0.949817,0.988604,0.947367,0.781837,0.483466,0.533695,0.932365,0.502440,-0.022847,0.965373,1.802903,1.739376,1.008410,1.091231
0.878407,0.475924,0.810400,0.803075,0.697457,0.643110,0.480926,0.654639,0.834208,0.600084,-0.070258,0.303480,2.481028,1.808064,1.007965,0.999090,0.861158,0.845005,0.972294,0.993414,0.990754,0.851546,0.560951,0.541865,1.012323,0.562452,-0.013591,0.954334,1.976951,1.961874,1.092389,1.145957
1.029400,0.654798,1.042678,0.987541,0.902827,0.619259,0.564600,0.861189,1.071752,0.749633,-0.040747,0.340712,2.664264,1.893487,1.144884,1.384527,1.024988,1.006466,1.209910,1.210443,1.168283,0.948349,0.703984,0.693433,1.136282,0.730189,-0.008011,1.103679,2.089297,2.002179,1.223252,1.321760
0.933850,0.566515,0.879044,0.868612,0.793743,0.648594,0.518481,0.701367,0.898841,0.639379,-0.050779,0.344904,2.945135,2.216139,1.368590,1.482037,0.935712,0.908930,1.085014,1.093724,1.059653,0.873596,0.574997,0.578390,0.981961,0.577363,-0.019028,1.036058,2.289997,2.231683,1.343036,1.154306
0.941406,0.563415,0.922464,0.897167,0.813002,0.459683,0.482813,0.680072,0.881253,0.647655,-0.061978,0.326491,2.673313,2.014367,1.206568,1.347609,0.939406,0.909859,1.105056,1.181408,1.062513,0.915495,0.605223,0.671381,1.094768,0.594753,-0.021840,0.950151,2.049062,2.052095,1.222787,1.158641
0.958639,0.518344,0.845855,0.818878,0.730990,0.132200,0.480509,0.630243,0.862037,0.615434,-0.041530,0.337988,2.775954,2.072833,1.249128,1.373682,0.947278,0.844957,0.988243,1.028415,0.941941,0.762315,0.508501,0.498689,0.966444,0.527205,-0.024453,0.962826,1.879624,1.866374,1.146629,1.347867
0.813234,0.441781,0.725877,0.736801,0.656570,0.137409,0.479147,0.613139,0.791008,0.616722,-0.078047,0.314213,2.597303,1.881985,1.151261,1.322090,0.816873,0.759268,0.899160,0.929226,0.865561,0.696907,0.460461,0.513533,0.929644,0.516776,-0.021280,1.007875,2.015422,1.901985,1.204543,1.249657
0.797696,0.429357,0.707328,0.696840,0.615789,0.131911,0.476973,0.559220,0.737210,0.523970,-0.083590,0.321596,2.656568,2.067674,1.244973,1.394889,0.781545,0.739204,0.875761,0.923949,0.846130,0.729923,0.462814,0.429468,0.834778,0.468800,-0.027109,0.935234,1.947209,1.921115,1.251054,1.289185
0.849440,0.536397,0.886165,0.869299,0.769667,0.109500,0.483343,0.708894,0.886747,0.592170,-0.080016,0.310524,2.708288,1.936780,1.178747,1.333473,0.938749,0.894515,1.054716,1.109165,1.035421,0.857709,0.503164,0.494181,0.993991,0.545042,-0.018953,1.033851,1.977001,1.884908,1.189727,1.256865
0.902225,0.544803,0.869485,0.865049,0.789750,0.049330,0.548133,0.767175,0.936958,0.734598,-0.021066,0.397711,2.826001,2.065014,1.262985,1.402990,0.926358,0.924092,1.092647,1.135748,1.152936,0.961104,0.704805,0.606450,1.091602,0.718192,0.003938,1.302835,2.108273,2.229187,1.391030,1.334642
0.775382,0.492523,0.761356,0.769315,0.648918,0.025653,0.446942,0.656685,0.798191,0.608468,-0.050530,0.412602,2.937108,2.105258,1.189852,1.353718,0.810894,0.788153,0.959143,1.008673,0.921281,0.769586,0.487728,0.477895,0.923887,0.563715,-0.013371,1.166977,2.100143,2.070436,1.318173,1.366862
0.860386,0.522980,0.821548,0.811205,0.736804,0.036851,0.512023,0.704973,0.885604,0.584213,-0.073529,0.293855,2.712140,1.886896,1.142605,1.358502,0.904324,0.853883,1.028549,1.075818,1.015528,0.852556,0.622947,0.524915,0.979119,0.609763,-0.012680,1.255507,2.303084,2.138690,1.354348,1.351458
0.784387,0.482508,0.802076,0.784228,0.733011,0.028742,0.523706,0.684485,0.855740,0.573501,-0.085937,0.257269,2.616681,1.924091,1.127405,1.272320,0.834720,0.846505,0.993694,1.050386,0.993722,0.824302,0.555420,0.557221,0.987959,0.598683,-0.009586,1.290629,2.469571,1.965993,1.315018,1.446307
0.803728,0.467210,0.742692,0.716422,0.648636,0.001939,0.421788,0.613617,0.753499,0.532133,-0.098537,0.241254,2.356455,1.615806,1.047618,1.349750,0.814875,0.771472,0.907260,0.942962,0.900379,0.718954,0.511739,0.457519,0.836748,0.532432,-0.022789,0.972395,1.634880,1.698295,1.250697,1.423908
0.755778,0.448929,0.732222,0.737037,0.656441,0.005411,0.361076,0.647390,0.758262,0.509738,-0.100949,0.231219,2.322042,1.523565,0.976275,1.228140,0.786211,0.751599,0.913612,0.954567,0.889692,0.728851,0.743607,0.489403,0.903624,0.497867,-0.024538,0.932820,1.554428,1.645201,1.092896,1.303394
0.951954,0.590743,0.904553,0.875720,0.750082,0.040060,0.300880,0.749106,0.892711,0.634786,-0.083181,0.265947,2.350494,1.681366,1.105212,1.336150,0.958470,0.896935,1.067361,1.087620,1.001441,0.883341,1.007266,0.507257,0.968557,0.593014,-0.017998,1.030441,1.673337,1.702744,1.117089,1.236910
1.036922,0.677724,1.001069,0.982438,0.920223,0.069418,0.340973,0.901403,1.035766,0.675144,-0.060799,0.270014,2.385051,1.549536,1.008512,1.276471,1.091262,1.073040,1.234705,1.319927,1.283209,1.051237,0.964733,0.677275,1.052197,0.668436,-0.013264,1.097205,1.851538,1.729580,1.103269,1.177889
0.892245,0.574733,0.884731,0.909896,0.814088,0.050018,0.314013,0.848693,1.013498,0.791654,-0.021095,0.372309,2.592460,1.803124,1.087461,1.331071,0.973690,0.929079,1.082156,1.139752,1.095188,0.980881,1.147936,0.592114,1.000597,0.636224,-0.003522,1.260507,1.943431,1.860726,1.203223,1.277688
0.818907,0.516682,0.806416,0.820425,0.726174,0.042959,0.193971,0.725298,0.864481,0.653296,-0.070228,0.334526,2.873961,2.177533,1.214009,1.522022,0.846559,0.853754,1.021184,1.083138,1.031119,0.903339,1.156853,0.558849,0.928863,0.548778,-0.017049,1.119872,1.960308,2.062954,1.383774,1.383975
0.844130,0.529111,0.828058,0.821871,0.730882,0.037163,0.181055,0.725702,0.860779,0.643532,-0.086367,0.259879,2.381309,1.758627,1.136299,1.447844,0.897809,0.869265,0.999807,1.071940,1.027553,0.906860,1.169248,0.518193,0.942852,0.559288,-0.015797,1.128507,1.940911,1.944772,1.238048,1.310822
0.940791,0.618871,0.927105,0.964876,0.899677,0.069194,0.206137,0.946873,1.033453,0.757421,-0.052650,0.304662,2.571745,1.902495,1.229815,1.533854,1.039115,1.014606,1.144910,1.232170,1.204279,1.034627,1.199266,0.570216,1.188598,0.729725,0.002821,1.282345,2.110018,2.130398,1.390285,1.482504
0.952534,0.606594,0.934279,0.931265,0.847660,0.051888,0.228530,0.888363,1.001237,0.741744,-0.052690,0.311981,2.285979,1.748062,1.114367,1.434891,0.980881,0.957313,1.104016,1.181100,1.151018,0.993746,1.190340,0.564423,0.944055,0.675981,-0.011672,1.251708,1.978512,1.832614,1.254554,1.193567
0.983765,0.619477,0.942884,0.935657,0.851001,0.056232,0.224468,0.906195,1.053743,0.830757,-0.031508,0.332869,2.368245,1.821514,1.148508,1.431139,1.019714,0.986283,1.094992,1.196610,1.173830,1.064580,1.144026,0.568210,0.936716,0.679041,-0.011603,1.234525,1.952358,1.774364,1.233528,1.370419
0.961416,0.653806,0.962868,0.951426,0.882212,0.058691,0.234036,0.923484,1.077298,0.814613,-0.026688,0.358199,2.345323,1.739588,1.202507,1.455260,0.999948,0.998042,1.115425,1.213479,1.186319,0.979370,1.199118,0.573185,0.982003,0.797584,-0.003561,1.448335,2.274516,1.918000,1.283132,1.163833
0.957603,0.619866,0.960733,0.935030,0.839834,0.052297,0.220461,0.895518,1.004781,0.779533,-0.042773,0.307155,2.493326,1.729539,1.075056,1.347603,0.994462,0.972592,1.100024,1.167650,1.129242,0.994851,1.201340,0.581780,0.936255,0.691656,-0.008440,1.254735,1.923009,1.788276,1.185289,1.093585
1.189012,0.746195,1.042052,1.034382,0.926295,0.073065,0.264547,1.015708,1.118280,0.938184,0.012349,0.387886,2.770418,2.039463,1.288460,1.511261,1.135861,1.061708,1.166501,1.226027,1.161813,1.080716,1.246822,0.563739,0.972644,0.699480,-0.006476,1.363548,2.002810,1.779511,1.224993,1.190634
1.095703,0.668475,0.983744,0.968537,0.877258,0.057936,0.235523,0.961237,1.114623,0.878045,0.003904,0.417231,2.482323,2.073781,1.254264,1.484249,1.066767,0.998105,1.107409,1.194076,1.129019,0.997924,1.196780,0.571485,0.949236,0.720486,-0.004528,1.379377,2.072346,1.864623,1.286550,1.167901
1.070840,0.645054,0.966280,0.963532,0.868544,0.058415,0.222826,0.942753,1.075541,0.860591,0.006565,0.420420,2.477301,2.332747,1.436942,1.709776,1.050660,0.994896,1.113496,1.195732,1.131577,0.977276,1.217527,0.550593,0.982672,0.699412,-0.005544,1.365366,2.218302,2.132960,1.477066,1.266786
1.072615,0.659530,0.982185,0.984191,0.874574,0.059392,0.218375,0.995048,1.082816,0.881669,0.012767,0.417474,2.392400,2.066787,1.227297,1.433698,1.059338,1.008334,1.114714,1.207820,1.162940,1.003944,1.183500,0.592346,0.952210,0.734434,-0.003755,1.414266,2.142310,2.011169,1.315003,1.234291
1.102951,0.671168,1.005519,0.962914,0.837170,0.047906,0.199789,0.914836,1.073358,0.853251,0.005619,0.432825,2.512440,2.178519,1.284966,1.494750,1.079086,0.988218,1.094018,1.177016,1.100529,0.933398,1.179041,0.514809,0.899208,0.694005,-0.008187,1.406034,2.252375,2.139165,1.393551,1.293729
0.930869,0.559431,0.853176,0.850923,0.762788,0.024471,0.171629,0.849323,0.950504,0.775441,-0.013381,0.386282,2.389794,2.057353,1.183638,1.196086,0.893135,0.848932,0.961281,1.065658,1.041553,0.880627,1.152220,0.466540,0.796193,0.715165,-0.009903,1.366681,2.045731,1.968277,1.295779,1.200326
1.010189,0.583929,0.893810,0.898348,0.801645,0.043478,0.199605,0.904111,1.042201,0.872505,0.007403,0.407020,2.338298,1.940734,1.086137,1.144130,0.974045,0.922734,1.027379,1.147516,1.056245,0.921947,1.177588,0.489908,0.867990,0.696935,-0.007235,1.379473,2.068765,1.890744,1.304535,1.262989
1.048450,0.629467,0.894264,0.897005,0.813758,0.042006,0.202703,0.889838,1.054861,0.877604,0.005714,0.414294,2.419775,2.039175,1.155458,1.197022,0.992629,0.925076,1.034842,1.148459,1.113730,0.960315,1.203814,0.533627,0.904884,0.715989,-0.003628,1.428173,2.072509,1.851327,1.251564,1.242802
1.016765,0.632296,0.931065,0.928573,0.837612,0.046887,0.199856,0.881941,1.055933,0.907422,0.010335,0.429154,2.415563,2.030818,1.153870,1.132307,0.986757,0.950302,1.058891,1.167203,1.135866,0.965782,1.165119,0.554676,0.903835,0.757179,-0.002402,1.461393,2.079097,1.854437,1.251736,1.274728
1.533015,0.946510,1.361446,1.321158,1.142829,0.117017,0.315827,1.165554,1.402064,1.185811,0.045475,0.509457,2.612796,2.250525,1.390880,1.492879,1.492670,1.366933,1.466378,1.569196,1.526904,1.223976,1.315350,0.711575,1.333686,0.994954,0.008385,1.719639,2.537463,2.050394,1.321278,1.256898
1.222018,0.744849,1.095681,1.078197,0.970066,0.084420,0.259511,1.023852,1.225077,1.021802,0.045960,0.471912,2.689683,2.236048,1.261720,1.314048,1.166184,1.100549,1.219149,1.335660,1.303670,1.099244,1.275159,0.665998,1.131605,0.864790,0.004946,1.558426,2.341063,1.972400,1.292218,1.218648
1.299988,0.855365,1.260076,1.287614,1.144322,0.146255,0.303230,1.222431,1.425914,1.217811,0.098868,0.521601,2.706913,2.225144,1.253957,1.287063,1.322527,1.283903,1.428744,1.575188,1.556964,1.269736,1.416867,0.731173,1.398566,1.021883,0.029123,1.804854,2.272690,1.919592,1.207289,1.095942
1.227906,0.766730,1.128632,1.106406,0.996611,0.104540,0.254471,1.057981,1.292791,1.092217,0.088473,0.484987,2.570605,2.147543,1.235546,1.402898,1.194410,1.119512,1.240057,1.356220,1.325398,1.139515,1.283725,0.774992,1.134406,0.936747,0.017461,1.782619,2.296426,1.906341,1.209193,1.237597
1.301471,0.783124,1.169475,1.154052,1.028599,0.118686,0.289200,1.125173,1.438670,1.197773,0.096506,0.544354,2.805806,2.298661,1.306294,1.426527,1.258851,1.163998,1.289352,1.395038,1.348879,1.183728,1.158901,0.965151,1.233279,0.947776,0.028566,1.907699,2.369774,1.925005,1.277951,1.175729
1.231125,0.751866,1.132085,1.107525,0.987201,0.104159,0.268468,1.074085,1.365068,1.171988,0.094508,0.527680,2.749887,2.194524,1.257009,1.344015,1.195599,1.112068,1.247338,1.364016,1.316397,1.182443,1.325443,0.899576,1.209027,0.922420,0.013496,1.702897,2.251600,1.839653,1.113995,1.012783
1.288778,0.824888,1.177679,1.144788,1.018368,0.105009,0.270598,1.102643,1.344957,1.148004,0.116420,0.553743,2.822309,2.265581,1.302817,1.379703,1.222832,1.150410,1.267596,1.384834,1.353540,1.180281,1.157679,0.847476,1.137363,0.895619,0.012312,1.674407,2.277326,1.875448,1.163295,1.083861
1.242596,0.772313,1.119995,1.103427,0.986247,0.096576,0.251670,1.028120,1.319097,1.120500,0.096697,0.502537,2.720875,2.336147,1.334536,1.398507,1.161263,1.102506,1.217328,1.336229,1.295693,1.125285,0.955238,0.828271,1.122684,0.831495,0.008041,1.640051,2.222869,1.823814,1.101029,0.981036
1.235701,0.802721,1.152619,1.130599,1.021022,0.105171,0.260770,1.050705,1.282303,1.098189,0.095390,0.504963,2.692139,2.312261,1.350077,1.445899,1.199470,1.157698,1.273438,1.383887,1.359977,1.203073,1.030540,0.837081,1.136826,0.831480,0.009929,1.660692,2.286765,1.875250,1.095999,0.980319
1.146138,0.717011,1.056302,1.043578,0.938122,0.077469,0.222162,0.966792,1.218270,1.031974,0.075274,0.479418,2.661806,2.278538,1.295149,1.323885,1.106099,1.057168,1.173009,1.293147,1.247269,1.043643,0.683356,0.819077,1.099231,0.866998,0.006752,1.681168,2.311019,2.027056,1.214298,1.017977
1.474372,1.030673,1.390440,1.398300,1.259645,0.157230,0.351590,1.380310,1.738279,1.550950,0.197770,0.710280,3.404556,2.551045,1.391221,1.399724,1.525330,1.445362,1.521176,1.665173,1.682543,1.438681,0.860196,1.092436,1.458625,1.171857,0.039602,2.238388,3.122388,2.150738,1.271305,1.099278
1.164795,0.737824,1.052686,1.024240,0.912700,0.074052,0.214516,0.938625,1.239089,1.079501,0.096288,0.494681,2.609976,2.212643,1.334781,1.273222,1.113242,1.035124,1.142498,1.251251,1.238859,1.025217,0.692984,0.789735,1.100588,0.817186,0.008620,1.680078,2.193220,1.761342,1.059239,1.053494
1.186957,0.730782,1.067868,1.047276,0.945631,0.080190,0.231345,0.989763,1.263747,1.104145,0.086921,0.496659,2.624982,2.243543,1.419505,1.480775,1.148914,1.075465,1.185756,1.299919,1.279306,1.019023,0.671012,0.820647,1.110636,0.845100,0.009089,1.627060,2.145251,1.722787,1.053875,1.173249
1.301144,0.770418,1.091824,1.059036,0.961183,0.078374,0.234661,1.017357,1.285952,1.129829,0.106012,0.524260,2.720116,2.280124,1.393465,1.477616,1.226337,1.092241,1.184627,1.282743,1.246403,1.003608,0.642367,0.791743,1.114990,0.868040,0.009663,1.708861,2.146532,1.711967,1.123719,1.396036
1.469314,0.905615,1.287265,1.225642,1.110285,0.118451,0.314206,1.216477,1.600378,1.399062,0.164624,0.637620,2.964289,2.446059,1.458151,1.479662,1.378530,1.252709,1.351639,1.462908,1.456056,1.245047,0.704796,0.907334,1.293996,1.011873,0.031389,2.270145,3.531364,2.844911,1.517240,1.234144
1.315299,0.796574,1.060575,1.013842,0.950125,0.081147,0.245879,1.004411,1.346480,1.151147,0.110299,0.534289,2.724126,2.362190,1.505143,1.527945,1.196699,1.046545,1.161303,1.254205,1.200946,0.988236,0.665250,0.890458,1.164818,0.879317,0.019058,1.835962,2.410392,1.899859,1.280354,1.356824
1.297345,0.754531,1.019597,0.975415,0.904504,0.068089,0.229362,1.004533,1.226631,1.111188,0.100442,0.527811,2.815978,2.548930,1.558284,1.496950,1.204980,1.010747,1.117445,1.189865,1.163725,0.920232,0.604988,0.766917,1.104216,0.803091,0.016060,1.976149,2.549077,1.908029,1.161851,1.174284
1.363287,0.763498,1.084533,1.044605,0.952783,0.080030,0.239524,1.008254,1.301944,1.165563,0.122708,0.543123,2.746782,2.329979,1.453835,1.485031,1.238105,1.046461,1.167863,1.238615,1.205496,0.995678,0.580302,0.781088,1.038224,0.823974,0.013952,1.798815,2.468366,1.903681,1.201500,1.187547
1.371964,0.769283,1.103621,1.032227,0.934840,0.084110,0.239437,0.975927,1.301005,1.124106,0.090763,0.525717,2.813532,2.438475,1.495058,1.533502,1.218806,1.050960,1.182197,1.259039,1.218214,0.954498,0.656269,0.858724,1.094410,0.792541,0.010525,1.696997,2.267329,1.885825,1.199826,1.186901
1.299924,0.715118,1.051901,1.009235,0.927601,0.074103,0.224472,1.013462,1.242423,1.058903,0.082074,0.514062,2.759745,2.338359,1.385286,1.392757,1.215001,1.064780,1.167062,1.270712,1.195516,0.974578,0.618453,0.766815,1.056875,0.782623,0.006597,1.684368,2.289392,1.899744,1.220133,1.195318
1.297410,0.722484,1.068058,1.015682,0.909206,0.071662,0.219707,0.974919,1.223160,1.081074,0.068669,0.507207,2.803512,2.275932,1.409094,1.554490,1.202525,1.052909,1.145887,1.220862,1.219077,1.000198,0.600194,0.782470,0.987636,0.744986,0.004734,1.659488,2.336400,1.958543,1.222410,1.171123
1.338821,0.789884,1.130035,1.070723,0.974877,0.088253,0.250638,1.035161,1.306132,1.118971,0.087781,0.506953,2.553624,2.161427,1.375753,1.511562,1.291729,1.126700,1.252309,1.318384,1.324621,1.047683,0.669144,0.840326,1.105378,0.851226,0.011170,1.720207,2.316283,1.823309,1.121225,1.094102
1.643203,1.043119,1.454721,1.365421,1.236650,0.158932,0.360961,1.300775,1.542223,1.354581,0.112023,0.527456,2.587915,2.213360,1.379159,1.427703,1.632200,1.440127,1.580653,1.622596,1.666492,1.326207,0.951244,1.090868,1.496572,1.036061,0.030267,1.906031,2.527211,2.015366,1.197279,1.245737
1.795350,1.149518,1.618951,1.486345,1.411759,0.204736,0.394098,1.431752,1.725871,1.486131,0.136269,0.521477,2.466841,2.091530,1.292617,1.388910,1.809448,1.590189,1.756714,1.787797,1.769399,1.463855,0.959755,1.101541,1.517642,1.117221,0.048479,2.125141,2.771501,1.849180,1.173117,1.340096
1.664080,1.061809,1.468067,1.417717,1.289625,0.171915,0.364675,1.359554,1.613395,1.409896,0.129081,0.526348,2.441006,2.056164,1.319407,1.581907,1.681978,1.493231,1.605581,1.688928,1.733016,1.398391,0.940917,1.083516,1.433711,1.082543,0.043011,1.937659,2.374834,1.833704,1.144022,1.239115
1.622412,1.014319,1.422389,1.360134,1.245753,0.161937,0.343040,1.324370,1.643275,1.469085,0.138534,0.569392,2.524198,2.093163,1.346168,1.643425,1.704663,1.441660,1.572335,1.614525,1.628577,1.316403,0.872940,1.060617,1.434796,1.032402,0.043135,2.023919,2.513915,1.815829,1.207104,1.510400
1.671830,1.066099,1.488651,1.356534,1.245485,0.165821,0.333660,1.319668,1.593747,1.364647,0.145689,0.526145,2.471803,2.053865,1.326556,1.521147,1.641719,1.410879,1.531768,1.630326,1.593641,1.319905,0.820261,0.917915,1.338697,1.009235,0.036518,1.940651,2.383788,1.797792,1.170218,1.394133
1.680618,1.046173,1.460890,1.397079,1.262799,0.161724,0.332950,1.391325,1.616890,1.381063,0.139506,0.572717,2.843610,2.425712,1.589238,1.686283,1.637269,1.428602,1.545519,1.600673,1.607322,1.305666,0.858614,0.895762,1.402776,0.994177,0.033209,1.978822,2.591950,2.017789,1.312071,1.441397
2.401791,1.599835,2.146995,2.054014,1.812009,0.260957,0.544753,1.958424,2.161532,1.867870,0.203122,0.654768,2.925300,2.836185,1.773758,2.786614,2.354871,2.074109,2.235213,2.297704,2.288235,1.908130,2.369080,1.278536,1.999747,1.541067,0.090815,2.572510,3.320058,3.233565,2.481012,2.311105
2.418758,1.629001,2.243033,2.082629,1.894369,0.289296,0.610663,2.058457,2.375425,2.127503,0.248338,0.718371,3.190467,2.908525,1.749246,2.780472,2.387743,2.094607,2.254575,2.313044,2.375860,1.932018,2.466459,1.329226,2.187953,1.700099,0.107560,2.689052,3.372986,3.229512,2.386485,2.205235
2.215466,1.407933,1.936517,1.838140,1.638374,0.229013,0.482399,1.784671,2.046616,1.842417,0.216104,0.714059,3.166380,2.936823,1.789214,2.857308,2.145118,1.897344,2.045646,2.080564,2.064984,1.734771,2.139372,1.174796,1.966763,1.485805,0.088250,2.642366,3.543624,3.406780,2.513527,2.407122
2.277432,1.487648,2.061451,1.933841,1.750977,0.259356,0.538592,1.922518,2.148944,1.939213,0.223630,0.688778,3.012769,2.876003,1.808300,2.925760,2.233056,1.946741,2.168753,2.219353,2.254502,1.911001,2.327360,1.271940,2.044275,1.572148,0.097579,2.707319,3.477532,3.300996,2.414349,2.275273
2.361787,1.589473,2.116686,2.034959,1.840552,0.275338,0.543477,1.920636,2.203518,1.925158,0.232658,0.736380,3.082200,2.927389,1.885273,2.795189,2.288462,2.038356,2.276898,2.322959,2.301603,1.991975,2.109794,1.351492,2.238224,1.587053,0.098171,2.754110,3.556422,3.328228,2.466052,2.159107
2.224638,1.386507,1.896575,1.762822,1.580653,0.219325,0.473142,1.773593,2.009093,1.809687,0.209939,0.691651,3.156659,3.110103,1.829565,2.700609,2.098524,1.784896,1.944270,1.979034,1.988778,1.672018,2.211645,1.118305,1.855677,1.404639,0.082005,2.569790,3.428012,3.282290,2.370051,1.989022
2.273483,1.522267,2.097315,2.008442,1.852983,0.278036,0.560130,1.890056,2.212494,1.917203,0.223289,0.642417,2.780040,2.792024,1.680469,2.545651,2.200370,2.020733,2.279892,2.367089,2.331216,1.931929,2.470652,1.439974,2.243117,1.612899,0.098705,2.549689,3.136862,2.912503,2.105030,1.939847
2.849257,1.900876,2.552152,2.406992,2.170425,0.370547,0.703245,2.362160,2.690809,2.518803,0.363200,0.853227,3.230797,3.127630,1.977867,2.994862,2.803575,2.412882,2.659819,2.705905,2.719393,2.377829,2.211467,1.649801,2.679093,1.984539,0.141870,3.103405,3.686700,3.280172,2.400842,2.374335
2.335484,1.448508,1.971512,1.827292,1.640896,0.230786,0.485331,1.756698,2.021435,1.765668,0.202851,0.722864,3.499327,3.421251,2.120791,3.183271,2.144511,1.828652,2.020769,2.092774,2.078441,1.748361,2.443201,1.189459,1.968752,1.449995,0.083251,2.617759,3.991933,3.983828,2.842541,2.490095
2.225366,1.441595,1.938468,1.815561,1.621842,0.226731,0.482186,1.762393,2.030680,1.751471,0.191231,0.648175,2.953310,2.830817,1.699950,2.642536,2.077744,1.809104,2.022227,2.080849,2.078902,1.760108,1.405331,1.187137,1.970209,1.432788,0.080635,2.505485,3.351960,3.141143,2.233933,2.065749
2.206452,1.415103,1.965163,1.830399,1.648104,0.238098,0.492921,1.816964,2.045185,1.758018,0.194061,0.667846,3.107046,2.922930,1.768087,2.749607,2.073118,1.831095,2.048228,2.113189,2.103501,1.781325,1.387680,1.206141,2.017350,1.482012,0.083135,2.536272,3.470587,3.272929,2.328552,2.194140
2.206767,1.402537,1.931996,1.807979,1.626218,0.228425,0.483051,1.759858,2.048332,1.807389,0.205002,0.668771,3.005892,2.876852,1.738754,2.777001,2.050390,1.801438,1.995326,2.065595,2.083597,1.738816,1.427806,1.180098,2.031105,1.476575,0.090386,2.731701,3.820475,3.433557,2.468696,2.195096
2.351624,1.530597,2.087399,1.975867,1.750202,0.274601,0.559792,1.962505,2.240055,1.930093,0.241879,0.700807,3.182366,3.086388,1.927769,3.093959,2.228697,1.947902,2.185542,2.231430,2.213819,1.885578,1.458353,1.342253,2.207255,1.668665,0.105860,2.790709,3.525989,3.407560,2.497350,2.326887
2.404481,1.574901,2.170713,2.020961,1.808198,0.272541,0.548204,1.897962,2.177194,1.866231,0.213243,0.705584,3.334614,3.413185,2.116848,3.445926,2.264954,2.003426,2.246037,2.332961,2.323881,1.968477,1.586254,1.300612,2.194508,1.484583,0.082872,2.428906,3.296151,3.317415,2.470044,2.412642
2.861452,1.937406,2.579757,2.453502,2.213831,0.376914,0.687071,2.279252,2.590421,2.169882,0.269260,0.722541,3.125843,3.065289,1.970211,3.199825,2.677642,2.442517,2.648801,2.752680,2.849400,2.389035,1.823429,1.595080,2.805956,1.746200,0.102947,2.464252,3.249010,3.327461,2.355489,2.193151
2.593529,1.690315,2.286572,2.126271,1.912240,0.296009,0.569593,2.035877,2.360583,2.144869,0.281541,0.764767,3.160200,3.081527,2.050587,3.240141,2.445687,2.141514,2.357044,2.425476,2.440587,2.068219,1.528043,1.399385,2.315109,1.618622,0.094798,2.492748,3.239976,3.262678,2.385783,2.307715
2.677855,1.740020,2.331587,2.164906,1.935596,0.304774,0.588658,2.061108,2.344850,2.049216,0.254277,0.735517,3.380555,3.314495,2.070491,3.199238,2.522366,2.195848,2.397199,2.459561,2.458512,2.077853,1.576949,1.408243,2.348401,1.605350,0.096371,2.637390,3.601437,3.606853,2.701753,2.707241
2.749823,1.843455,2.468782,2.335518,2.075935,0.340558,0.648775,2.167272,2.546354,2.121373,0.274256,0.740872,3.275225,3.304090,2.049935,3.059081,2.659009,2.368104,2.591114,2.658006,2.645315,2.278737,1.847466,1.584904,2.578286,1.798457,0.113914,2.701296,3.332546,3.319916,2.361948,2.135001
3.138921,2.210594,2.896221,2.779184,2.474279,0.437027,0.803786,2.570939,3.044441,2.499904,0.324534,0.793674,3.262846,3.248520,2.074939,3.099850,3.054533,2.789447,3.028536,3.137675,3.152465,2.566157,1.953626,1.913315,3.143219,2.159167,0.170787,3.127265,3.488136,3.716408,2.687063,2.785041
2.869685,1.893962,2.513241,2.283631,2.023508,0.324776,0.623015,2.115824,2.434073,2.102134,0.273305,0.763206,3.340023,3.281604,2.077720,3.301263,2.675203,2.345827,2.520765,2.579053,2.595531,2.213701,1.604101,1.503263,2.448756,1.645609,0.100070,2.624732,3.665627,3.566698,2.634709,2.565847
2.664322,1.788048,2.423898,2.248061,1.999219,0.323890,0.615324,2.069969,2.449186,2.093020,0.270398,0.761198,3.364690,3.377572,2.097893,3.173941,2.540791,2.272589,2.494881,2.546494,2.553445,2.187366,1.582921,1.519702,2.472842,1.687197,0.110727,2.580846,3.277353,3.295096,2.470890,2.420760
2.579215,1.681300,2.282018,2.102931,1.879548,0.290681,0.564458,1.957130,2.281436,1.989529,0.281379,0.824382,3.628540,3.497891,2.145763,3.287095,2.437569,2.147495,2.343134,2.420743,2.427252,2.064601,1.500180,1.415985,2.289282,1.554687,0.109103,2.554458,3.408114,3.444926,2.688501,2.652658
2.703588,1.792844,2.470317,2.292823,2.071606,0.337756,0.636660,2.131278,2.460977,2.088331,0.282162,0.794779,3.490906,3.421697,2.197249,3.522938,2.600201,2.334532,2.584655,2.659540,2.662614,2.279521,1.543718,1.578628,2.465588,1.736166,0.129193,2.810784,3.494639,3.613290,3.021426,3.140593
2.739941,1.898759,2.606550,2.439178,2.196819,0.370395,0.681876,2.258094,2.598788,2.157183,0.259283,0.745575,3.421899,3.416475,2.104645,3.333599,2.693772,2.453204,2.714247,2.791895,2.839033,2.373509,1.737472,1.674584,2.630174,1.803347,0.125010,2.647986,3.314526,3.383646,2.888052,2.777440
2.683196,1.807765,2.454288,2.299088,2.050316,0.338882,0.630492,2.139101,2.484408,2.107419,0.254628,0.724613,3.440209,3.433821,2.025938,3.051437,2.577777,2.325542,2.549206,2.630309,2.653277,2.234785,1.645987,1.568954,2.521596,1.735529,0.128228,2.647626,3.394286,3.461012,3.216788,2.729908
2.852690,1.916941,2.646774,2.462318,2.191740,0.379145,0.683463,2.293082,2.523997,2.100764,0.257045,0.740825,3.699016,3.670021,2.162162,3.103705,2.818571,2.577994,2.811113,2.883622,2.945593,2.472771,1.851173,1.747334,2.650915,1.781028,0.127382,2.690125,3.508251,3.542034,3.410620,2.705860
2.749078,1.851051,2.513958,2.322233,2.094615,0.352312,0.657818,2.161607,2.515587,2.112949,0.256004,0.746877,3.707397,3.786393,2.142927,3.299525,2.630310,2.385669,2.608088,2.724139,2.738864,2.275190,1.604820,1.626599,2.593402,1.763461,0.127032,2.684897,3.372403,3.394023,3.299943,2.832901
2.586945,1.779105,2.446544,2.273564,2.052750,0.340509,0.620932,2.066056,2.432314,1.979745,0.226995,0.710333,3.691811,3.767671,2.068133,3.082626,2.539664,2.353141,2.563801,2.678109,2.672280,2.274943,1.525657,1.593342,2.527745,1.652916,0.109632,2.319087,3.051440,3.276114,3.129048,2.725393
2.453399,1.693086,2.335956,2.186317,1.972120,0.324041,0.606014,1.920804,2.333921,1.843726,0.189182,0.655421,3.610772,3.711955,2.066098,3.083341,2.413070,2.271407,2.525169,2.623821,2.651242,2.185082,1.453545,1.545376,2.509582,1.594910,0.100327,2.103520,2.867747,3.667228,3.695176,2.747903
2.512808,1.740477,2.420942,2.306377,2.045588,0.334209,0.616981,1.994475,2.438207,1.907823,0.208604,0.677948,3.598482,3.796454,2.168253,3.222285,2.464442,2.331889,2.594894,2.721295,2.687625,2.238691,1.465031,1.619494,2.625121,1.690572,0.111309,2.112367,2.825846,3.460582,3.400027,3.001768
2.838917,1.993943,2.599032,2.406431,2.118672,0.366994,0.659448,2.124498,2.535139,2.011204,0.229390,0.719869,3.696903,3.820096,2.177006,3.230915,2.710303,2.470206,2.697795,2.799399,2.801571,2.329252,1.543775,1.632574,2.523728,1.726151,0.107666,2.208686,2.934817,3.462639,3.671132,2.921200
2.700032,1.937149,2.641178,2.565079,2.335052,0.407039,0.743069,2.313830,2.803974,2.315425,0.285241,0.770663,3.804344,3.855758,2.138906,3.212741,2.706589,2.587281,2.923991,3.075866,3.099088,2.644908,1.835359,1.922960,2.928357,1.950601,0.131930,2.474753,3.092420,3.532911,3.732888,2.880100
2.999461,2.029175,2.740526,2.553195,2.311356,0.411770,0.721496,2.521936,2.811394,2.369063,0.343190,0.954277,4.652209,4.446672,2.406282,3.367937,3.009652,2.624104,2.886765,2.914787,2.949274,2.578416,1.759420,1.860349,2.876787,2.009072,0.159257,2.915730,3.625487,4.370620,4.311217,3.350577
2.863978,1.938086,2.591344,2.393502,2.130405,0.357962,0.661645,2.147300,2.572083,2.097850,0.254535,0.754953,3.902751,3.925943,2.232966,3.308268,2.764927,2.474382,2.684865,2.733914,2.733791,2.322311,1.551874,1.608394,2.516965,1.736106,0.116483,2.269125,2.869435,3.673058,3.667881,2.903127
2.992088,2.081510,2.843265,2.604001,2.383929,0.418392,0.741586,2.378257,2.757219,2.235714,0.281376,0.779540,3.943635,3.977546,2.325587,3.408078,2.914752,2.655809,2.969251,3.013883,3.027780,2.580578,1.726454,1.770866,2.789935,1.950020,0.131700,2.511621,3.388111,3.787068,3.775431,3.020534
2.889495,1.927211,2.611214,2.419259,2.166003,0.372997,0.675262,2.312521,2.725791,2.391786,0.335212,0.867612,4.281089,4.241226,2.451669,3.495882,2.794044,2.473008,2.676238,2.744020,2.758259,2.292290,1.559264,1.653342,2.638482,1.799656,0.142492,2.577780,2.925811,3.674644,3.720631,3.104493
2.588845,1.735870,2.345307,2.208148,1.994491,0.328886,0.614276,2.048547,2.433018,2.045867,0.271057,0.813542,4.300212,4.243113,2.432732,3.617221,2.515243,2.279074,2.490636,2.599285,2.592557,2.132557,1.440910,1.524312,2.506419,1.693134,0.121979,2.314682,2.760688,3.726867,3.891963,3.252695
2.650635,1.786256,2.371289,2.233498,2.006580,0.332015,0.622956,2.079615,2.473041,2.111487,0.283920,0.826439,4.087452,4.000945,2.272225,3.293398,2.574239,2.295729,2.506923,2.578736,2.547240,2.156287,1.443101,1.533666,2.478412,1.675980,0.116529,2.389723,2.973334,3.840308,3.715502,3.124993
2.689400,1.805868,2.406997,2.264336,2.042633,0.337092,0.637267,2.156801,2.497336,2.095314,0.255576,0.769191,3.986735,3.957140,2.293809,3.366334,2.601546,2.326688,2.557013,2.634355,2.635969,2.198451,1.509673,1.564279,2.492433,1.746650,0.120635,2.351546,2.863572,3.830619,3.948735,3.205118
2.710971,1.845176,2.432884,2.300490,2.072309,0.342429,0.642808,2.147929,2.508393,2.123150,0.269826,0.819611,4.316302,4.213747,2.344355,3.411006,2.685044,2.403352,2.596300,2.667454,2.668619,2.222754,1.585202,1.573120,2.539151,1.785647,0.128754,2.640403,3.293383,4.255811,4.011314,3.322812
3.043713,1.997502,2.624712,2.408173,2.163585,0.358163,0.671778,2.292501,2.577133,2.200145,0.282837,0.801432,3.981078,3.907326,2.400170,3.742756,2.859894,2.500966,2.698508,2.762508,2.759887,2.267647,1.589389,1.604823,2.584510,1.760873,0.130445,2.511628,2.952933,3.667747,3.881431,3.725761
3.190839,2.212066,2.948353,2.740725,2.522093,0.452772,0.791893,2.788228,3.303313,2.949770,0.492052,1.100035,4.594335,4.323615,2.318046,3.242482,3.108085,2.776174,3.038485,3.190857,3.068528,2.670330,1.744856,2.018806,3.056606,2.300998,0.192576,3.674663,4.208666,4.777740,4.098004,3.504673
2.982806,2.169142,2.915787,2.722605,2.464078,0.426632,0.784957,2.528751,2.914755,2.366641,0.333022,0.886588,4.123909,3.914231,2.226612,3.224686,2.983248,2.799310,3.079328,3.157952,3.178906,2.599749,1.976642,1.899685,2.825491,2.059670,0.144876,2.957834,3.705880,4.126154,3.797254,3.150806
2.533661,1.722845,2.270783,2.152346,1.948444,0.317675,0.603045,2.059433,2.423189,2.053407,0.265863,0.829084,4.381605,4.151268,2.238624,3.327313,2.502156,2.239348,2.444311,2.511560,2.469713,2.130265,1.420237,1.461663,2.295302,1.654395,0.115296,2.675593,3.414681,3.999120,3.655875,3.102981
2.803259,1.873740,2.504065,2.340636,2.092624,0.348161,0.650712,2.269212,2.577753,2.180570,0.292649,0.828541,4.043495,3.866122,2.126012,3.344742,2.725971,2.459951,2.636295,2.747682,2.704507,2.286147,1.570529,1.614510,2.460985,1.769460,0.139671,2.874027,3.479317,3.885688,3.997400,3.288076
2.512045,1.694271,2.254798,2.134727,1.920448,0.307089,0.588260,2.046004,2.371246,1.998321,0.250701,0.769387,4.058487,3.923060,2.197646,3.410066,2.428123,2.199002,2.440011,2.528093,2.449803,2.068347,1.477587,1.548636,2.337232,1.712249,0.135578,2.599118,3.216318,3.898303,3.659077,3.132865
2.787722,1.918497,2.532141,2.413682,2.185186,0.374770,0.690070,2.243455,2.719662,2.189909,0.258909,0.784716,4.220857,4.131518,2.536966,3.650038,2.712259,2.486572,2.729897,2.862740,2.796217,2.315722,1.604504,1.650241,2.600922,1.867629,0.096145,2.569032,3.135841,4.001015,3.883980,3.360742
2.492027,1.762705,2.392281,2.249809,2.043051,0.337664,0.636679,2.166446,2.496330,2.111321,0.256413,0.775701,4.056428,3.913068,2.154899,3.274890,2.493629,2.285671,2.558313,2.665867,2.639351,2.232857,1.563185,1.599400,2.445595,1.785986,0.102694,2.538511,3.130531,3.864285,3.349654,2.934924
3.170903,2.216830,2.911956,2.793480,2.559678,0.459549,0.789235,2.644239,2.931073,2.377101,0.302290,0.794362,3.947564,3.821949,2.297420,3.743671,3.086042,2.850267,3.135127,3.298181,3.202116,2.622684,2.030679,1.947609,2.778817,2.022905,0.126199,2.716737,3.204358,3.756942,3.592971,3.194890
2.868322,2.014109,2.756747,2.634821,2.399227,0.413094,0.742605,2.431127,2.738215,2.285822,0.294667,0.830691,4.185524,3.945531,2.390495,3.937552,2.836325,2.661754,2.953140,3.117199,3.076708,2.580552,1.842715,1.787300,2.745842,1.929907,0.116924,2.742493,3.354644,3.762198,3.149618,2.824577
2.630431,1.849349,2.546380,2.448199,2.244974,0.387600,0.695257,2.360770,2.651389,2.204478,0.281127,0.796054,3.911701,3.774546,2.223305,3.292997,2.642283,2.486341,2.804673,2.915977,2.799112,2.361808,1.673959,1.736244,2.685944,2.214434,0.114730,2.669336,3.235490,3.794148,3.277049,2.886524
2.467608,1.687476,2.246299,2.158853,1.977464,0.313170,0.605934,2.102025,2.374627,2.009009,0.253456,0.784209,4.009130,3.894608,2.335364,3.463504,2.405653,2.191733,2.426497,2.544581,2.459470,2.047803,1.489464,1.454818,2.308126,1.845669,0.094400,2.586912,3.277292,3.887522,2.612022,2.816510
2.863824,2.029123,2.718879,2.580205,2.352484,0.407186,0.733780,2.509078,2.803905,2.221296,0.304102,0.886090,4.473337,4.402011,2.534473,3.572595,2.934842,2.706356,2.943545,3.040782,2.958981,2.470757,1.817367,1.837499,2.698092,2.740632,0.114144,2.703255,3.262738,3.749176,2.557579,2.896157
2.669850,1.836623,2.477691,2.358149,2.147275,0.364013,0.677518,2.316130,2.524742,2.088655,0.268203,0.840374,4.213705,4.078259,2.452555,3.694017,2.632079,2.410311,2.652705,2.788082,2.740311,2.331664,1.671070,1.587650,2.487730,2.539435,0.100408,2.720771,3.449127,3.746087,2.556924,3.269812
2.612972,1.793457,2.399512,2.281151,2.082782,0.345071,0.651189,2.224633,2.458992,2.072105,0.268822,0.811008,4.206346,4.075617,2.385141,3.569066,2.577584,2.350434,2.562949,2.666826,2.625952,2.217660,1.605252,1.547439,2.417279,2.599731,0.100741,2.643585,3.255818,3.646111,2.510215,3.076538
2.531810,1.768746,2.393739,2.281797,2.068005,0.342416,0.639063,2.235874,2.472774,2.100858,0.283819,0.845978,4.021596,3.728979,2.181981,3.491634,2.485590,2.302927,2.554310,2.654836,2.601089,2.200518,1.568147,1.556915,2.449540,2.588371,0.103778,2.710642,3.249584,3.627152,2.496409,3.108700
2.494112,1.734756,2.360799,2.257581,2.071923,0.341780,1.171816,2.263846,2.562250,2.140300,0.295347,0.822906,3.753136,3.627602,2.361644,3.697016,2.448644,2.288056,2.542769,2.668601,2.594272,2.197255,1.607051,1.572819,2.495794,2.939192,0.111294,2.692082,3.270163,3.519238,3.032777,3.303782
2.544266,1.741911,2.402203,2.280148,2.128129,0.347988,0.854086,2.258834,2.510390,2.147825,0.289525,0.824984,3.771683,3.583223,2.365388,3.656327,2.478662,2.305791,2.564998,2.734476,2.656622,2.207477,1.568260,1.621016,2.569670,2.671513,0.115061,2.709932,3.217196,3.536307,2.519153,3.167134
2.606750,1.741292,2.337131,2.222843,2.007378,0.339685,1.412254,2.210163,2.455827,2.146322,0.305354,0.929801,4.608306,4.298643,2.558105,4.235132,2.500322,2.266677,2.492025,2.608317,2.523574,2.211895,1.577270,1.575645,2.411549,2.900338,0.108651,2.988439,3.931217,3.888313,3.089161,3.768593
2.401485,1.588200,2.219062,2.101001,1.925330,0.309876,1.525118,2.063373,2.333419,1.990055,0.258075,0.791381,3.943176,3.824073,2.485093,3.835523,2.318410,2.129520,2.361009,2.516006,2.424012,2.080257,1.503345,1.452008,2.289415,2.837647,0.102721,2.821500,3.598708,3.499664,2.859423,3.608598
2.410673,1.591564,2.211662,2.096758,1.928338,0.307419,1.541561,2.068137,2.355960,2.057741,0.273154,0.809857,4.092646,4.037158,2.558679,4.072112,2.311778,2.097551,2.328442,2.492003,2.420459,2.054497,1.454792,1.433722,2.358671,2.818667,0.107909,2.860020,3.607137,3.585169,3.317529,4.081483
2.362109,1.589069,2.226178,2.135820,1.964232,0.325142,1.607133,2.073226,2.325127,1.948245,0.248649,0.776824,3.828907,3.982214,2.652316,4.396441,2.280235,2.132258,2.386304,2.577166,2.524960,2.150632,1.568479,1.518884,2.363027,2.877425,0.100244,2.719573,3.498843,3.431239,2.934016,3.701580
2.461107,1.593855,2.204375,2.077537,1.895126,0.299175,1.716682,2.024011,2.267204,1.918283,0.255307,0.772397,3.869278,3.888983,2.396966,4.061939,2.323006,2.110761,2.328322,2.473922,2.444577,2.044493,1.483246,1.412990,2.239868,2.842081,0.092266,2.579294,3.306206,3.211145,2.894636,3.872688
2.912545,1.905358,2.528048,2.388148,2.183126,0.360666,1.833771,2.341321,2.643017,2.205364,0.319020,0.860095,3.941941,3.801453,2.515969,4.341533,2.744019,2.410909,2.629396,2.733136,2.753607,2.263649,1.706544,1.590638,2.521489,3.017886,0.118531,2.929832,3.518743,3.331517,3.009262,3.818068
2.579021,1.715198,2.394078,2.260559,2.064892,0.332422,1.961921,2.190449,2.358799,1.963268,0.240223,0.734274,3.672708,3.695969,2.325710,3.787810,2.483359,2.302089,2.542296,2.691430,2.598728,2.189974,1.563957,1.511803,2.352321,2.849516,0.098228,2.683982,3.423438,3.302142,2.873521,3.710971
2.400212,1.610508,2.278000,2.149443,1.984620,0.316472,1.929954,2.070409,2.296366,1.965598,0.268155,0.776414,3.583175,3.645739,2.309229,3.803236,2.335314,2.197490,2.453183,2.603026,2.539691,2.097919,1.459651,1.483243,2.321150,2.908601,0.103998,2.732665,3.485250,3.474997,3.056486,3.721446
2.398154,1.617979,2.296269,2.177819,1.989632,0.326619,1.920165,2.135320,2.355690,1.946266,0.242330,0.736387,3.616293,3.642925,2.322163,3.846497,2.322748,2.187854,2.444573,2.621953,2.552259,2.146378,1.485934,1.544585,2.375930,2.929057,0.105737,2.734347,3.494318,3.401533,3.098057,3.827758
2.587914,1.778120,2.574077,2.402149,2.245333,0.386065,2.110574,2.494240,2.619303,2.060234,0.265161,0.755055,3.744933,4.098557,2.476173,4.079501,2.761007,2.586137,2.818710,2.968587,3.040825,2.427893,1.761988,1.795971,2.706802,3.159436,0.141317,3.241095,3.808543,3.545885,3.352793,4.416859
2.616542,1.662138,2.314680,2.141460,1.975493,0.310587,1.994389,2.345304,2.291157,1.835324,0.232938,0.778768,4.138004,4.355711,2.756357,4.535289,2.503540,2.219963,2.447404,2.580787,2.559215,2.090392,1.448819,1.466393,2.247852,2.783700,0.088068,2.580585,3.559473,3.701764,3.616331,5.000767
3.126501,2.189370,2.979444,2.790601,2.566020,0.448207,2.093717,2.661116,3.104084,2.560130,0.392048,1.004139,4.432984,4.343318,2.511677,4.158204,3.159720,2.833872,3.099627,3.227917,3.266373,2.636374,1.846324,1.903247,3.007595,3.147173,0.153577,3.338781,4.130709,4.034804,3.491781,4.161226
2.582302,1.743908,2.411954,2.266712,2.114461,0.346553,2.097795,3.872186,2.498915,2.045161,0.268881,0.826434,4.188466,4.419225,2.662400,4.232328,2.546974,2.330208,2.600671,2.715862,2.763939,2.248984,1.587135,1.568207,2.467422,2.929615,0.102199,2.592277,3.285641,3.412891,3.288486,4.160185
2.653088,1.789825,2.514941,2.370945,2.171269,0.361931,2.126863,3.849206,2.552594,2.101276,0.274906,0.796100,3.949646,4.310185,2.609350,4.308895,2.644059,2.449868,2.736851,2.853322,2.883154,2.396068,1.643942,1.674876,2.561909,3.030645,0.108586,2.586943,3.189106,3.349378,3.325727,4.219003
2.872085,1.899407,2.589909,2.390305,2.201597,0.366313,2.060383,4.060157,2.615263,2.122384,0.284345,0.836967,4.042059,4.302723,2.759967,4.407039,2.796639,2.522888,2.746648,2.869869,2.878758,2.372321,1.598567,1.644603,2.591490,2.914431,0.111734,2.670635,3.295129,3.613910,3.390606,4.278999
3.037510,2.137561,2.851003,2.745737,2.523557,0.442748,2.091970,4.972264,2.914739,2.300610,0.299521,0.831765,3.923273,4.227312,2.444637,4.135304,3.009981,2.809338,3.071957,3.242164,3.191701,2.681001,1.915169,1.942811,2.943650,3.144658,0.119961,2.578561,3.212649,3.431252,3.690934,4.657421
2.930982,1.967303,2.648677,2.441195,2.253929,0.388841,2.207400,4.620736,2.654355,2.168253,0.286817,0.832819,4.129370,4.326428,2.464495,4.123633,2.816560,2.554191,2.794795,2.882539,2.916407,2.433723,1.807917,1.674515,2.534865,3.239204,0.110532,2.707287,3.700002,3.700176,3.485835,4.278546
3.110660,2.037276,2.672235,2.459380,2.259579,0.372101,2.072358,4.721311,2.612753,2.122283,0.280532,0.851462,4.366365,4.718170,2.652858,4.555977,2.950902,2.588603,2.776005,2.855711,2.859875,2.328153,1.589375,1.654524,2.536721,2.770210,0.111732,2.785175,3.699038,3.722090,3.468934,4.320912
2.971293,2.047327,2.887727,2.715495,2.455688,0.452386,2.391033,4.795866,2.805462,2.291657,0.322905,0.870744,4.075405,4.281187,2.535290,4.635528,3.002116,2.845550,3.092409,3.253868,3.270633,2.797061,1.919399,1.895579,2.896786,3.495380,0.135266,2.870423,3.583605,3.663748,3.621456,5.137293
2.871722,2.007737,2.843148,2.648059,2.506868,0.460077,2.266758,5.270638,3.049656,2.645250,0.392908,0.967361,4.200340,4.335850,2.565862,4.406754,2.925084,2.759156,3.010923,3.181413,3.225095,2.718576,1.952788,2.002076,3.039857,2.798183,0.158953,3.416646,4.470696,4.383087,3.684494,4.477665
2.591098,1.701588,2.355912,2.206115,2.051211,0.333232,2.076171,4.691318,2.462433,2.063082,0.283597,0.879597,4.454107,4.828714,2.895840,4.709778,2.539439,2.303032,2.552760,2.666949,2.718907,2.231352,1.531274,1.549700,2.423082,2.404055,0.103892,2.630835,3.553988,3.798695,3.799448,4.773750
2.860983,1.902806,2.613543,2.431108,2.280567,0.391629,2.158043,4.865687,2.764045,2.415415,0.355603,0.970325,4.523339,4.948140,2.824580,4.860866,2.814556,2.581047,2.784720,2.891192,2.966207,2.575284,1.717003,1.698928,2.631080,1.949512,0.119190,2.867195,3.736615,3.865055,3.766997,4.905664
2.896168,1.790826,2.492445,2.280422,2.093882,0.348443,2.040621,4.866554,2.644215,2.352278,0.359027,0.962685,4.385818,4.567431,2.743069,4.703053,2.733045,2.365430,2.568072,2.653669,2.731652,2.305601,1.562906,1.629219,2.416546,1.889768,0.124624,2.989124,4.050506,4.091490,4.069919,4.989842
3.098356,2.002814,2.667264,2.423731,2.200923,0.369415,2.199134,4.854469,2.671038,2.265421,0.328667,0.939766,4.475404,4.577024,2.639373,4.613116,2.887378,2.565400,2.731924,2.824359,2.850073,2.304721,1.647969,1.663229,2.546909,1.823234,0.122504,2.930273,3.905179,4.019662,3.798893,4.643946
2.764142,1.746961,2.381873,2.198896,2.015921,0.325863,1.684116,4.774723,2.498616,2.125959,0.303291,0.906915,4.466232,4.613836,2.532616,4.464081,2.610929,2.310936,2.515162,2.615174,2.645778,2.166487,1.503155,1.531091,2.397109,1.773444,0.112411,2.792421,3.849003,3.959758,3.740297,4.512332
2.713871,1.727992,2.351890,2.216443,2.030412,0.335664,1.937009,4.810731,2.456600,2.092366,0.292912,0.924077,4.631861,4.666047,2.608655,4.611669,2.567721,2.313055,2.532796,2.654346,2.681450,2.206715,1.528531,1.550032,2.423181,1.752108,0.107510,2.672342,3.813963,3.937556,3.767319,4.798245
2.791962,1.779398,2.391770,2.240091,2.050610,0.333309,1.413885,4.731176,2.565380,2.204692,0.324006,0.956068,4.659740,4.657445,2.475054,4.386065,2.617443,2.332950,2.551609,2.649334,2.682688,2.205724,1.543167,1.541811,2.397772,1.769420,0.110726,2.879203,4.168661,4.385656,3.892838,4.693549
2.910671,1.839250,2.439926,2.254050,2.050929,0.334650,0.982082,4.804655,2.555032,2.246257,0.332332,0.949961,4.683244,4.651793,2.542612,4.596169,2.739359,2.371604,2.585769,2.667860,2.724173,2.261519,1.551754,1.534680,2.430694,1.792028,0.113707,2.962463,4.269696,4.468747,4.111699,5.068843
2.930396,1.869708,2.482418,2.333264,2.123322,0.357870,0.687933,4.842049,2.646839,2.332681,0.361646,1.022101,5.010502,4.883193,2.678407,4.833704,2.863811,2.496569,2.706430,2.808704,2.825192,2.355782,1.648187,1.643415,2.521831,1.881794,0.121813,2.987779,4.089571,4.230863,3.957239,4.998869
3.003332,1.941125,2.625013,2.499713,2.278143,0.390707,0.714025,4.950762,2.797808,2.474370,0.372343,1.000256,4.690259,4.614957,2.503443,4.684902,2.941918,2.615954,2.850442,2.951858,2.957910,2.408209,1.716638,1.737834,2.749417,1.958457,0.126953,2.818774,3.838027,3.992788,3.685917,4.646502
3.008045,1.988482,2.604406,2.479170,2.265299,0.385569,0.718999,4.820374,2.785634,2.467427,0.371096,1.043013,4.974710,4.834130,2.568785,4.584051,2.974864,2.618798,2.858885,2.917332,2.952020,2.461515,1.725098,1.782825,2.649812,1.937821,0.128254,2.961377,4.098343,4.203118,3.634461,4.475458
2.934124,1.950823,2.651829,2.525108,2.327105,0.410501,0.805176,5.080425,2.812014,2.467557,0.377964,1.027678,4.759370,4.730443,2.528951,4.552003,2.872821,2.622236,2.900583,3.033751,3.024509,2.540013,1.785460,1.812384,2.766679,2.021317,0.139573,3.053550,4.102151,4.181399,3.579487,4.353148
3.041336,2.032589,2.770976,2.543525,2.317774,0.399797,0.689541,4.976206,2.904260,2.443840,0.344339,0.970278,4.549130,4.465367,2.314737,4.217726,2.947645,2.665800,2.892210,2.979059,2.961396,2.407329,1.721106,1.778383,2.818498,2.012036,0.131073,2.852412,3.907337,4.184470,3.484816,4.253391
2.875096,1.901794,2.554609,2.432758,2.221661,0.375048,0.682079,4.948825,2.742436,2.348997,0.335163,0.959321,4.493429,4.389670,2.321483,4.420457,2.828030,2.565883,2.778111,2.906353,2.873230,2.345234,1.683171,1.697215,2.670678,1.934843,0.126312,2.828237,3.857119,4.028952,3.362245,4.243831
2.835881,1.902962,2.553898,2.418022,2.203265,0.371040,0.707105,4.608365,2.740020,2.371377,0.328080,0.969202,4.581027,4.603599,2.422699,4.435813,2.785089,2.535417,2.765809,2.893510,2.891685,2.368400,1.679493,1.741979,2.663927,1.945935,0.127992,2.924940,3.915475,4.257642,3.575101,4.312166
2.964013,1.901633,2.520196,2.356268,2.135368,0.360474,0.680062,4.690699,2.786132,2.523623,0.394937,1.016976,4.797174,4.722995,2.446660,4.573007,2.834040,2.484155,2.678417,2.767574,2.781055,2.293421,1.634925,1.674438,2.619314,1.996232,0.142087,3.143724,4.177876,4.226319,3.478190,4.524993
2.968087,1.918490,2.552794,2.381274,2.179868,0.366392,0.704007,4.311402,2.849179,2.463748,0.365639,1.015535,4.798945,4.676831,2.344848,4.454651,2.837689,2.498054,2.695433,2.815549,2.796443,2.292961,1.668257,1.662910,2.663861,1.927944,0.126593,2.930986,3.992985,4.096817,3.420327,4.453385
2.893472,1.877392,2.490436,2.335995,2.115896,0.356358,0.665915,4.493932,2.723332,2.425697,0.351752,0.969368,4.377884,4.278204,2.301601,4.513968,2.740113,2.424064,2.639050,2.743797,2.745637,2.277424,1.602097,1.629779,2.555991,1.901429,0.129443,3.085042,4.353162,4.125107,3.246476,4.063362
2.895146,1.920250,2.552448,2.446812,2.233764,0.386136,0.699709,3.748636,2.842207,2.512192,0.375437,1.013249,4.541181,4.155391,2.177018,4.279771,2.798400,2.500247,2.732450,2.851096,2.842721,2.363586,1.677519,1.702425,2.668246,1.965912,0.130125,2.999882,4.193716,4.196831,3.475096,4.306802
3.545718,2.421546,3.271125,3.065278,2.784043,0.535852,0.940274,3.000486,3.605041,3.244162,0.528401,1.188038,4.772178,4.333477,2.473690,4.553289,3.560821,3.137962,3.449781,3.583277,3.622251,3.045089,2.194397,2.172771,3.277473,2.468484,0.182218,3.486708,4.307123,4.156071,3.342435,4.241855
2.694856,1.720107,2.332443,2.230602,2.015763,0.329146,0.637976,2.463623,2.614339,2.341798,0.338207,0.940352,4.346686,4.070527,2.054655,4.537834,2.566486,2.306400,2.518852,2.634200,2.596727,2.156146,1.542671,1.603490,2.498184,1.917685,0.127197,2.984529,4.201718,4.418467,3.181906,4.170195
3.061215,1.924368,2.547503,2.396760,2.133496,0.354837,0.682575,2.212281,2.681441,2.450553,0.369476,0.965315,4.298744,3.903420,2.003747,4.399558,2.870932,2.533229,2.711710,2.789470,2.763774,2.279284,1.579106,1.643031,2.471600,1.946108,0.129773,3.003120,4.207571,4.255888,3.304606,4.211299
2.977461,1.846475,2.445678,2.300091,2.032438,0.330833,0.630847,2.298634,2.807045,2.568479,0.410413,1.059143,4.587967,4.182395,2.064003,4.376316,2.836988,2.415261,2.546043,2.626744,2.616247,2.150216,1.536427,1.600743,2.572684,2.005566,0.151501,3.540339,4.483490,4.359619,3.569111,4.195783
2.671330,1.652196,2.207714,2.090757,1.883187,0.296365,0.580897,2.146986,2.478542,2.269241,0.339271,0.950757,4.287927,3.913726,1.982116,4.302849,2.524319,2.167212,2.319009,2.418122,2.387768,1.986957,1.400244,1.449556,2.256747,1.737468,0.116324,3.161408,4.453276,4.391749,3.106258,4.204080
2.863233,1.822206,2.379185,2.262508,2.034133,0.328510,0.640753,2.249871,2.650336,2.412557,0.367493,0.986770,4.330243,4.121510,2.160204,4.316589,2.741418,2.351276,2.532158,2.594003,2.574898,2.205195,1.546605,1.578503,2.461633,1.875531,0.128343,3.165690,4.107347,3.997776,3.082143,3.912129
3.035355,1.894269,2.585986,2.404919,2.154283,0.361766,0.683701,2.344506,2.784102,2.459689,0.381661,1.014467,4.380276,4.018281,2.128556,4.514175,2.868355,2.502370,2.649735,2.769110,2.792762,2.302534,1.578814,1.667020,2.574055,1.934841,0.137940,3.289296,4.336618,4.121801,3.153528,4.083267
2.641866,1.684454,2.264252,2.150142,1.957236,0.308615,0.590512,2.241950,2.525812,2.250560,0.312380,0.878933,3.938560,3.706965,1.775677,3.888304,2.571120,2.284027,2.444020,2.534602,2.491658,2.054103,1.439122,1.478185,2.302177,1.768127,0.109302,2.791865,3.702987,3.747647,2.847868,3.924936
2.767030,1.648653,2.123264,1.994519,1.773852,0.261357,0.526361,1.943794,2.317453,2.073251,0.279168,0.852491,3.978545,3.841843,1.922951,4.247911,2.492316,2.077626,2.196346,2.275017,2.201482,1.805193,1.262489,1.303866,2.121143,1.607488,0.097092,2.701157,3.745466,3.948863,2.903092,3.708975
2.525296,1.566708,2.058557,1.992647,1.784935,0.262845,0.529585,1.898272,2.299161,2.060409,0.290533,0.894638,4.190848,4.049659,2.203809,4.272307,2.367713,2.040406,2.203882,2.311584,2.231220,1.828177,1.295957,1.327821,2.146763,1.626157,0.097408,2.727701,3.701749,3.650017,2.775421,3.567325
2.551078,1.562370,2.070026,1.960405,1.788686,0.254601,0.529160,1.921465,2.400057,2.193467,0.315676,0.936892,4.091137,3.552121,1.641598,3.712065,2.385975,2.017067,2.188979,2.270622,2.202834,1.821151,1.289936,1.382744,2.120398,1.687838,0.109568,3.039053,4.148819,3.884908,2.803139,3.622827
2.852475,1.678751,2.213542,2.009231,1.804875,0.260860,0.536420,1.983779,2.345215,2.173731,0.304622,0.901919,4.019561,3.568313,1.655724,3.907117,2.595798,2.093485,2.218176,2.265684,2.224451,1.880890,1.274633,1.287313,2.151568,1.650255,0.099744,2.827559,3.974289,3.884371,3.018945,4.105609
2.283195,1.371357,1.820396,1.737363,1.579922,0.207698,0.461223,1.719713,2.168702,1.952225,0.257065,0.815699,3.649316,3.370496,1.548841,3.660536,2.113990,1.787336,1.943401,2.039076,1.975485,1.627936,1.134553,1.205337,2.012398,1.523854,0.089319,2.724983,3.854146,3.695087,2.650057,3.377253
2.393475,1.491928,1.986876,1.891385,1.701495,0.244584,0.508303,1.888837,2.305412,2.048577,0.271585,0.857619,3.707680,3.523022,1.616043,3.633605,2.239986,1.932415,2.096743,2.195576,2.161472,1.816529,1.255241,1.248102,2.090822,1.583055,0.093010,2.591370,3.356808,3.453836,2.645954,3.380072
2.361022,1.485250,2.029762,1.943053,1.772950,0.260917,0.532791,1.938620,2.494848,2.270359,0.353306,1.028735,3.948357,3.599045,1.647088,3.681967,2.263598,1.963998,2.178073,2.257108,2.202576,1.897728,1.316075,1.378687,2.174606,1.729285,0.112796,2.822670,3.584209,3.752744,2.596237,3.164090
2.327288,1.541826,2.050627,2.045902,1.851091,0.291220,0.598255,2.169509,2.591068,2.402256,0.354174,0.899627,3.746288,3.404687,1.537381,3.652910,2.232639,2.069375,2.260837,2.463787,2.412892,1.974437,1.456207,1.515751,2.482261,1.848416,0.120190,2.960517,3.809605,3.711478,2.458837,3.306192
2.225591,1.404052,1.895939,1.789612,1.609135,0.216250,0.459915,1.715895,2.115220,1.938696,0.270513,0.820614,3.418117,3.313365,1.468451,3.284625,2.156520,1.883354,2.046366,2.088098,2.022493,1.652818,1.127713,1.162701,1.938473,1.451588,0.082107,2.526268,3.372063,3.214477,2.297878,2.818175
2.067424,1.267528,1.714800,1.615950,1.456696,0.179259,0.407607,1.553597,1.961477,1.784595,0.228828,0.789265,3.387297,3.261173,1.377811,2.993800,1.932938,1.666523,1.804634,1.864134,1.804360,1.462557,0.992684,1.032499,1.713014,1.317696,0.070370,2.484979,3.371660,3.379017,2.420210,2.757456
2.055461,1.260514,1.724228,1.623888,1.471143,0.182142,0.412253,1.564618,1.980974,1.814410,0.255195,0.828074,3.602629,3.369617,1.388790,3.017330,1.939515,1.684998,1.837221,1.883550,1.856400,1.493556,1.001366,1.046589,1.719329,1.339500,0.072852,2.468632,3.422658,3.451280,2.521823,2.713679
1.895001,1.112239,1.516434,1.406286,1.298048,0.133360,0.340106,1.391105,1.735513,1.524326,0.174969,0.694148,3.093361,3.158905,1.387192,3.071767,1.661256,1.415967,1.549302,1.622980,1.573473,1.307328,0.844529,0.862925,1.517020,1.141638,0.049820,2.187830,2.975785,3.109699,2.381055,2.910622
1.869474,1.092237,1.479747,1.415327,1.282880,0.139586,0.345501,1.359684,1.669696,1.499080,0.160592,0.679692,3.046647,3.087221,1.338425,3.061228,1.648600,1.420221,1.550797,1.631211,1.560637,1.277729,0.956799,0.841633,1.490656,1.183829,0.051302,2.169717,2.931557,3.051471,2.312590,2.874675
1.884580,1.078556,1.442761,1.360717,1.230896,0.126805,0.335716,1.324226,1.678220,1.510073,0.176656,0.722615,3.246396,3.234797,1.351885,3.110771,1.651414,1.380698,1.491323,1.553199,1.541777,1.221248,0.921811,0.861676,1.458449,1.132172,0.049659,2.214329,2.901986,3.008369,2.290824,2.822500
1.929116,1.143280,1.605434,1.523518,1.393992,0.162525,0.364261,1.374730,1.819096,1.630585,0.244783,0.762154,3.297396,3.027274,1.231499,2.835169,1.765108,1.567608,1.658370,1.797648,1.734670,1.381628,0.962684,1.047787,1.570635,1.170648,0.060843,2.379561,3.254138,3.270439,2.417361,2.727367
2.144618,1.272323,1.755713,1.636861,1.491265,0.196351,0.432245,1.646958,2.024454,1.847230,0.245538,0.800942,3.414004,2.998038,1.310958,2.718994,1.855918,1.673359,1.787978,1.874942,1.798944,1.552514,1.226411,1.133212,1.793667,1.401518,0.076973,2.476256,2.875623,2.782410,2.150002,2.629043
1.696429,1.031816,1.427148,1.379492,1.267878,0.132706,0.325694,1.335703,1.765857,1.627587,0.197773,0.663297,2.685897,2.665277,1.099656,2.629453,1.527536,1.398904,1.527027,1.634191,1.580598,1.222655,0.926971,0.841555,1.655559,1.186984,0.054189,2.026139,2.388818,2.524916,2.072743,2.428338
1.788174,1.105856,1.511614,1.405856,1.292384,0.138813,0.334290,1.406493,1.717309,1.591267,0.166130,0.654945,2.709076,2.649364,1.095522,2.609948,1.606661,1.417618,1.514723,1.615631,1.554317,1.229702,0.937099,0.853031,1.450252,1.174868,0.056314,2.219325,2.887933,3.065127,2.276616,2.439453
1.778145,1.093240,1.577651,1.490490,1.361625,0.166898,0.377094,1.591437,1.909307,1.719481,0.190170,0.703322,3.082181,3.142754,1.141610,2.653949,1.663587,1.497662,1.642123,1.732887,1.739324,1.406519,1.255112,1.056021,1.693816,1.288489,0.065669,2.246548,2.734676,2.889856,2.196579,2.475990
1.843302,1.191632,1.646967,1.578338,1.461498,0.178233,0.407179,1.480446,1.864784,1.670488,0.251467,0.736003,3.165105,3.186059,1.351444,2.945774,1.782377,1.621007,1.811420,1.866891,1.862947,1.475569,1.164731,1.034592,1.608946,3.053709,0.053196,2.125051,2.646319,2.842685,2.234572,2.575295
1.594880,0.919008,1.314396,1.259506,1.157969,0.106618,0.286809,1.280929,1.650042,1.556698,0.286178,0.705206,3.123497,3.256749,1.387271,2.893370,1.449747,1.294557,1.389178,1.488348,1.495471,1.192639,0.987645,0.823741,1.421330,4.597688,0.046193,2.037265,2.516011,2.795854,2.381345,2.868915
1.644522,0.934116,1.350379,1.279541,1.203437,0.112850,0.295038,1.238317,1.540851,1.378522,0.208061,0.615152,2.822245,2.972594,1.357238,3.049710,1.462117,1.324597,1.474654,1.560833,1.519505,1.253438,1.156819,0.863105,1.415477,3.510003,0.034567,1.819269,2.299570,2.498331,2.180737,3.530553
1.609495,1.004261,1.429883,1.393278,1.294469,0.134482,0.330264,1.376225,1.733544,1.524728,0.229596,0.601817,2.774323,2.935735,1.568901,2.805789,1.581120,1.424648,1.581045,1.661393,1.666545,1.324477,1.138907,0.908468,1.593489,4.098773,0.046650,1.940119,2.290549,2.553088,2.043613,2.788689
1.587896,0.994555,1.442004,1.398895,1.299936,0.141586,0.346062,1.311999,1.718066,1.554350,0.224333,0.640241,2.892357,2.982836,1.389362,2.586430,1.559180,1.436509,1.580817,1.693274,1.645394,1.312599,1.111420,0.940571,1.602494,4.348417,0.046860,1.991721,2.452937,2.683517,2.069002,2.818989
1.383259,0.839248,1.252579,1.184949,1.133931,0.094098,0.277654,1.185724,1.480181,1.312891,0.197495,0.545121,2.541688,2.702136,1.389431,2.494254,1.268525,1.204631,1.346690,1.457909,1.404902,1.113012,0.995500,0.759744,1.355168,4.626390,0.028233,1.712204,2.174584,2.442469,1.928855,2.287819
1.381903,0.851710,1.275312,1.243908,1.182317,0.109563,0.300981,1.251240,1.499526,1.328063,0.179625,0.535902,2.697923,3.119906,1.334745,2.587299,1.305393,1.266526,1.460336,1.577198,1.529120,1.244835,1.398164,0.805725,1.455569,4.521426,0.042029,1.892714,2.162609,2.489312,1.920098,2.342317
1.521826,0.969496,1.408343,1.331361,1.253525,0.125025,0.339904,1.324071,1.685977,1.478249,0.234267,0.579061,2.838664,2.974035,1.491958,2.526690,1.435172,1.352898,1.517328,1.670540,2.148211,1.254521,1.250424,0.876557,1.608967,4.834607,0.041450,1.877068,2.193828,2.455125,1.813027,2.205120
1.363635,0.828292,1.233898,1.145609,1.094227,0.086437,0.259918,1.157362,1.408413,1.261235,0.172976,0.541005,2.643433,2.832119,1.537750,2.545063,1.270884,1.198154,1.352171,1.446515,1.891263,1.098837,1.602151,0.710015,1.305135,4.776084,0.023844,1.642137,2.079049,2.473704,1.839354,2.230283
1.633018,0.897342,1.257209,1.160434,1.082913,0.084606,0.253457,1.106480,1.414589,1.252569,0.189928,0.566959,2.786887,3.125391,1.859355,3.626174,1.345851,1.211366,1.345072,1.439923,1.843494,1.085631,1.351300,0.707823,1.298841,4.901936,0.023636,1.654125,2.098320,2.586767,1.882689,2.580595
1.444345,0.873662,1.302802,1.209248,1.157878,0.100837,0.282858,1.216799,1.510165,1.353140,0.188314,0.575154,2.819775,2.929528,1.637838,2.306144,1.401508,1.284387,1.443126,1.504193,2.103274,1.185267,1.331798,0.756554,1.366629,4.788175,0.031162,1.775953,2.095613,2.372081,1.767182,1.989503
1.390970,0.877635,1.298197,1.227084,1.181751,0.108780,0.290752,1.232591,1.508684,1.336963,0.196482,0.563010,2.769008,2.926956,1.514205,2.298378,1.338453,1.282768,1.450069,1.546220,2.224777,1.232892,1.421426,0.827830,1.382945,4.966140,0.029762,1.806768,2.288183,2.500252,1.803889,2.058620
1.436864,0.920277,1.334214,1.235137,1.181331,0.108192,0.291102,1.217891,1.545328,1.355096,0.195716,0.548904,2.669045,2.875521,1.576997,2.389234,1.419815,1.327656,1.470266,1.545257,2.503211,1.248329,1.395500,0.871873,1.383469,5.013776,0.032084,1.821196,2.246956,2.469573,1.777284,1.964087
1.426337,0.928908,1.359632,1.298304,1.217404,0.120404,0.308527,1.249352,1.581421,1.375107,0.199013,0.640517,2.703989,2.892914,3.337137,2.234556,1.396021,1.333900,1.483412,1.584744,2.408084,1.257249,1.497712,1.007009,1.432054,5.067202,0.045180,1.831607,2.145158,2.422122,1.837056,2.083344
1.429166,0.906980,1.352627,1.279461,1.219658,0.123868,0.308086,1.271503,1.619891,1.537755,0.229857,0.562017,2.472039,2.551339,2.846637,2.527621,1.395962,1.339319,1.508873,1.595634,2.433275,1.270315,1.562900,0.949118,1.533639,5.018908,0.045821,1.857353,2.196656,2.515771,1.885149,2.297862
1.424163,0.901313,1.321256,1.270441,1.181001,0.113991,0.300168,1.222123,1.521534,1.430859,0.212242,0.501428,2.405731,2.643950,4.516274,2.637599,1.426251,1.349185,1.516470,1.564929,2.359709,1.230690,1.572913,0.998178,1.458987,5.085778,0.053596,1.773364,2.128991,2.708550,2.456260,2.164044
1.306518,0.818636,1.276401,1.239448,1.170464,0.120787,0.289135,1.287154,1.551172,1.390529,0.195027,0.482302,2.422689,2.548133,4.899805,2.413271,1.341366,1.293056,1.485989,1.588495,2.503645,1.202503,1.489287,0.935713,1.565373,5.100445,0.055016,1.868883,2.071389,2.532161,2.146955,2.174248
